 PENELOPE (v. 2005)  Material data file ...............
 Material:  GADOLINIUM OXYSULFIDE                                      
 Mass density = 7.44000000E+00 g/cm**3
 Number of elements in the molecule =  3
   atomic number =  8,  atoms/molecule = 2.00000000E+00
   atomic number = 16,  atoms/molecule = 1.00000000E+00
   atomic number = 64,  atoms/molecule = 2.00000000E+00
 Mean excitation energy = 4.93300000E+02 eV
 Number of oscillators = 24 (E/P inelastic model)
   1  2.00000000E+00  6.00000000E+00  1.40879822E+01  64  30
   2  1.80000000E+01  0.00000000E+00  1.71390131E+01   0  30
   3  4.00000000E+00  1.00000000E+01  2.26412552E+01  16   6
   4  8.00000000E+00  1.40000000E+01  3.17114834E+01   8   3
   5  2.00000000E+00  1.60000000E+01  3.57544365E+01  16   5
   6  4.00000000E+00  2.40000000E+01  5.35809169E+01   8   2
   7  1.20000000E+01  2.80000000E+01  6.26169080E+01  64  30
   8  4.00000000E+00  4.30000000E+01  9.54968996E+01  64  30
   9  2.00000000E+01  1.44000000E+02  3.19172200E+02  64  30
  10  6.00000000E+00  1.64333333E+02  3.64137587E+02  16   3
  11  2.00000000E+00  2.29000000E+02  5.07383071E+02  16   2
  12  8.00000000E+00  2.72000000E+02  6.02702615E+02  64  30
  13  4.00000000E+00  3.11000000E+02  6.89068549E+02  64  30
  14  4.00000000E+00  3.83000000E+02  8.48582426E+02  64  30
  15  4.00000000E+00  5.43000000E+02  1.20306334E+03   8   1
  16  2.00000000E+01  1.20580000E+03  2.67131006E+03  64   8
  17  8.00000000E+00  1.55100000E+03  3.43633531E+03  64   7
  18  4.00000000E+00  1.69500000E+03  3.75536807E+03  64   6
  19  4.00000000E+00  1.88800000E+03  4.18296919E+03  64   5
  20  2.00000000E+00  2.47200000E+03  5.47684891E+03  16   1
  21  8.00000000E+00  7.24300000E+03  1.60472528E+04  64   4
  22  4.00000000E+00  7.93100000E+03  1.75715518E+04  64   3
  23  4.00000000E+00  8.37600000E+03  1.85574728E+04  64   2
  24  4.00000000E+00  5.02390000E+04  1.11307165E+05  64   1
 Number of shells = 18 (Compton IA model)
   1  1.80000000E+01  0.00000000E+00  7.75747719E-01   0  30
   2  2.00000000E+00  6.00000000E+00  1.13000000E-01  64  30
   3  1.20000000E+01  1.26666667E+01  4.17000000E-01   0  30
   4  1.80000000E+01  2.57777778E+01  4.72000000E-01   0  30
   5  4.00000000E+00  4.30000000E+01  5.38000000E-01  64  30
   6  2.60000000E+01  1.48692308E+02  1.12461538E-01   0  30
   7  1.80000000E+01  3.00555556E+02  1.62222222E-01   0  30
   8  4.00000000E+00  5.43000000E+02  1.13000000E-01   8   1
   9  1.20000000E+01  1.19300000E+03  3.99000000E-02  64   9
  10  8.00000000E+00  1.22500000E+03  3.94000000E-02  64   8
  11  8.00000000E+00  1.55100000E+03  6.01000000E-02  64   7
  12  4.00000000E+00  1.69500000E+03  5.73000000E-02  64   6
  13  4.00000000E+00  1.88800000E+03  9.71000000E-02  64   5
  14  2.00000000E+00  2.47200000E+03  5.53000000E-02  16   1
  15  8.00000000E+00  7.24300000E+03  2.30000000E-02  64   4
  16  4.00000000E+00  7.93100000E+03  2.14000000E-02  64   3
  17  4.00000000E+00  8.37600000E+03  4.34000000E-02  64   2
  18  4.00000000E+00  5.02390000E+04  1.22000000E-02  64   1
 *** RELAX:  Z =  8,  NO. OF SHELLS =  4,  NO. OF TRANSITIONS =   8
   1 1s1/2 2  5.43000000E+02
   2 2s1/2 2  2.40000000E+01
   3 2p1/2 2  1.40000000E+01
   4 2p3/2 2  1.40000000E+01
   1  3  0  1.90768000E-03  5.23090000E+02
   1  4  0  3.80027000E-03  5.23130000E+02
   1  2  2  1.78644000E-01  4.78820000E+02
   1  2  3  1.16224000E-01  4.93860000E+02
   1  2  4  2.30418000E-01  4.93900000E+02
   1  3  3  1.10822000E-02  5.08900000E+02
   1  3  4  2.91115000E-01  5.08940000E+02
   1  4  4  1.66809000E-01  5.08980000E+02
 *** RELAX:  Z = 16,  NO. OF SHELLS =  7,  NO. OF TRANSITIONS =  54
   1 1s1/2 2  2.47200000E+03
   2 2s1/2 2  2.29000000E+02
   3 2p1/2 2  1.65000000E+02
   4 2p3/2 4  1.64000000E+02
   5 3s1/2 2  1.60000000E+01
   6 3p1/2 2  1.00000000E+01
   7 3p3/2 2  1.00000000E+01
   1  3  0  2.47822000E-02  2.30670000E+03
   1  4  0  4.90644000E-02  2.30789000E+03
   1  6  0  1.15591000E-03  2.46973000E+03
   1  7  0  2.28902000E-03  2.46407000E+03
   1  2  2  6.79961000E-02  2.00396000E+03
   1  2  3  7.39684000E-02  2.05720000E+03
   1  2  4  1.43069000E-01  2.05853000E+03
   1  2  5  1.42819000E-02  2.20898000E+03
   1  2  6  4.23283000E-03  2.21959000E+03
   1  2  7  8.17425000E-03  2.21968000E+03
   1  3  3  1.31472000E-02  2.11044000E+03
   1  3  4  3.31099000E-01  2.11177000E+03
   1  3  5  6.86216000E-03  2.26222000E+03
   1  3  6  1.45266000E-03  2.27283000E+03
   1  3  7  1.70618000E-02  2.27292000E+03
   1  4  4  1.88236000E-01  2.11310000E+03
   1  4  5  1.32869000E-02  2.26355000E+03
   1  4  6  1.70457000E-02  2.27416000E+03
   1  4  7  1.96027000E-02  2.27425000E+03
   1  5  5  7.44545000E-04  2.41400000E+03
   1  5  6  3.95703000E-04  2.42461000E+03
   1  5  7  7.60167000E-04  2.42470000E+03
   1  6  6  3.64445000E-05  2.43522000E+03
   1  6  7  7.96592000E-04  2.43531000E+03
   1  7  7  4.58163000E-04  2.43540000E+03
   2  6  0  3.05768000E-05  2.27170000E+02
   2  7  0  5.14767000E-05  2.24960000E+02
   2  5  5  8.19136000E-03  1.84070000E+02
   2  5  6  8.39006000E-03  1.94680000E+02
   2  5  7  1.66434000E-02  1.94770000E+02
   2  6  6  1.45352000E-04  2.05290000E+02
   2  6  7  1.13569000E-05  2.05380000E+02
   2  7  7  3.03228000E-04  2.05470000E+02
   3  5  0  2.07430000E-04  1.48660000E+02
   3  7  0  3.45370000E-08  1.60520000E+02
   3  5  5  2.44984000E-02  1.30830000E+02
   3  5  6  3.20372000E-01  1.41440000E+02
   3  5  7  2.13995000E-02  1.41530000E+02
   3  6  6  1.35178000E-01  1.52050000E+02
   3  6  7  4.84421000E-01  1.52140000E+02
   3  7  7  1.39230000E-02  1.52230000E+02
   4  5  0  1.95079000E-04  1.48660000E+02
   4  6  0  1.61379000E-08  1.60930000E+02
   4  7  0  1.58869000E-08  1.58730000E+02
   4  5  5  2.39739000E-02  1.29500000E+02
   4  5  6  1.05269000E-02  1.40110000E+02
   4  5  7  3.31167000E-01  1.40200000E+02
   4  6  6  2.17960000E-03  1.50720000E+02
   4  6  7  2.53969000E-01  1.50810000E+02
   4  7  7  3.77988000E-01  1.50900000E+02
   2 30  0  4.49177000E-04  2.25970000E+02
   2  3 30  3.29158000E-01  5.32400000E+01
   2  4 30  6.36625000E-01  5.45700000E+01
   3 30  0  2.48030000E-13  1.72730000E+02
 *** RELAX:  Z = 64,  NO. OF SHELLS = 21,  NO. OF TRANSITIONS = 708
   1 1s1/2 2  5.02390000E+04
   2 2s1/2 2  8.37600000E+03
   3 2p1/2 2  7.93100000E+03
   4 2p3/2 4  7.24300000E+03
   5 3s1/2 2  1.88800000E+03
   6 3p1/2 2  1.69500000E+03
   7 3p3/2 4  1.55100000E+03
   8 3d3/2 4  1.22500000E+03
   9 3d5/2 6  1.19300000E+03
  10 4s1/2 2  3.83000000E+02
  11 4p1/2 2  3.11000000E+02
  12 4p3/2 4  2.72000000E+02
  13 4d3/2 4  1.47000000E+02
  14 4d5/2 6  1.42000000E+02
  17 5s1/2 2  4.30000000E+01
  18 5p1/2 2  2.80000000E+01
  19 5p3/2 4  2.80000000E+01
  15 4f5/2 6  6.00000000E+00
  16 4f7/2 1  6.00000000E+00
  20 5d3/2 1  6.00000000E+00
  24 6s1/2 2  6.00000000E+00
   1  3  0  2.68220000E-01  4.23093000E+04
   1  4  0  4.82240000E-01  4.29967000E+04
   1  6  0  4.90060000E-02  4.85558000E+04
   1  7  0  9.47869000E-02  4.86969000E+04
   1  8  0  7.47609000E-04  4.90533000E+04
   1  9  0  9.84989000E-04  4.90533000E+04
   1 11  0  1.07690000E-02  4.99606000E+04
   1 12  0  2.09040000E-02  4.99606000E+04
   1 13  0  1.68470000E-04  5.00907000E+04
   1 14  0  2.21410000E-04  5.00986000E+04
   1 18  0  2.26800000E-03  5.02682000E+04
   1 19  0  4.67370000E-03  5.02728000E+04
   1  2  2  5.80221000E-03  3.36034000E+04
   1  2  3  7.49325000E-03  3.40062000E+04
   1  2  4  7.02906000E-03  3.47105000E+04
   1  2  5  2.19695000E-03  4.00886000E+04
   1  2  6  1.53179000E-03  4.02663000E+04
   1  2  7  1.48254000E-03  4.04114000E+04
   1  2  8  1.08988000E-04  4.07216000E+04
   1  2  9  1.04845000E-04  4.07534000E+04
   1  2 10  5.14124000E-04  4.15718000E+04
   1  2 11  3.44873000E-04  4.16419000E+04
   1  2 12  3.31712000E-04  4.16743000E+04
   1  2 13  2.42334000E-05  4.17910000E+04
   1  2 14  2.30159000E-05  4.17969000E+04
   1  3  3  7.07999000E-04  3.44090000E+04
   1  3  4  1.41137000E-02  3.51133000E+04
   1  3  5  1.19251000E-03  4.04914000E+04
   1  3  6  2.56352000E-04  4.06691000E+04
   1  3  7  2.47627000E-03  4.08142000E+04
   1  3  8  1.22026000E-04  4.11244000E+04
   1  3  9  3.81416000E-04  4.11562000E+04
   1  3 10  2.68653000E-04  4.19746000E+04
   1  3 11  5.63863000E-05  4.20447000E+04
   1  3 12  5.33388000E-04  4.20771000E+04
   1  3 13  2.64267000E-05  4.21938000E+04
   1  3 14  8.24435000E-05  4.21997000E+04
   1  3 15  3.65343000E-07  4.23390000E+04
   1  3 16  1.21781000E-07  4.23398000E+04
   1  4  4  6.69248000E-03  3.58176000E+04
   1  4  5  1.06588000E-03  4.11957000E+04
   1  4  6  2.36947000E-03  4.13734000E+04
   1  4  7  2.41920000E-03  4.15185000E+04
   1  4  8  4.43762000E-04  4.18287000E+04
   1  4  9  3.95182000E-04  4.18605000E+04
   1  4 10  2.37592000E-04  4.26789000E+04
   1  4 11  5.13064000E-04  4.27490000E+04
   1  4 12  5.25014000E-04  4.27814000E+04
   1  4 13  9.64477000E-05  4.28981000E+04
   1  4 14  8.56101000E-05  4.29040000E+04
   1  4 15  8.52457000E-07  4.30433000E+04
   1  4 16  1.21781000E-07  4.30441000E+04
   1  5  5  2.04701000E-04  4.65738000E+04
   1  5  6  2.45630000E-04  4.67515000E+04
   1  5  7  2.26997000E-04  4.68966000E+04
   1  5  8  1.59532000E-05  4.72068000E+04
   1  5  9  1.47349000E-05  4.72386000E+04
   1  5 10  9.54712000E-05  4.80570000E+04
   1  5 11  5.54094000E-05  4.81271000E+04
   1  5 12  5.09032000E-05  4.81595000E+04
   1  5 13  3.53154000E-06  4.82762000E+04
   1  5 14  3.16623000E-06  4.82821000E+04
   1  6  6  2.24076000E-05  4.69292000E+04
   1  6  7  4.24273000E-04  4.70743000E+04
   1  6  8  1.65619000E-05  4.73845000E+04
   1  6  9  4.94444000E-05  4.74163000E+04
   1  6 10  5.54094000E-05  4.82347000E+04
   1  6 11  9.86426000E-06  4.83048000E+04
   1  6 12  9.17008000E-05  4.83372000E+04
   1  6 13  3.65337000E-06  4.84539000E+04
   1  6 14  1.07162000E-05  4.84598000E+04
   1  7  7  2.19931000E-04  4.72194000E+04
   1  7  8  6.35680000E-05  4.75296000E+04
   1  7  9  5.50424000E-05  4.75614000E+04
   1  7 10  5.06604000E-05  4.83798000E+04
   1  7 11  9.21874000E-05  4.84499000E+04
   1  7 12  9.54702000E-05  4.84823000E+04
   1  7 13  1.38827000E-05  4.85990000E+04
   1  7 14  1.20556000E-05  4.86049000E+04
   1  7 15  1.21778000E-07  4.87442000E+04
   1  8  8  1.22106000E-07  4.78398000E+04
   1  8  9  7.69278000E-06  4.78716000E+04
   1  8 10  3.54103000E-06  4.86900000E+04
   1  8 11  3.41896000E-06  4.87601000E+04
   1  8 12  1.31874000E-05  4.87925000E+04
   1  8 14  1.58737000E-06  4.89151000E+04
   1  9  9  1.82668000E-06  4.79034000E+04
   1  9 10  3.28804000E-06  4.87218000E+04
   1  9 11  1.01075000E-05  4.87919000E+04
   1  9 12  1.13249000E-05  4.88243000E+04
   1  9 13  1.58310000E-06  4.89410000E+04
   1  9 14  7.30670000E-07  4.89469000E+04
   1 10 10  1.09692000E-05  4.95402000E+04
   1 10 11  1.24161000E-05  4.96103000E+04
   1 10 12  1.12101000E-05  4.96428000E+04
   1 10 13  7.23263000E-07  4.97594000E+04
   1 10 14  7.23263000E-07  4.97653000E+04
   1 11 11  1.05870000E-06  4.96804000E+04
   1 11 12  1.92912000E-05  4.97128000E+04
   1 11 13  7.05775000E-07  4.98295000E+04
   1 11 14  2.11731000E-06  4.98354000E+04
   1 12 12  1.00277000E-05  4.97453000E+04
   1 12 13  2.83122000E-06  4.98620000E+04
   1 12 14  2.35932000E-06  4.98678000E+04
   1 13 14  3.65336000E-07  4.99845000E+04
   1 14 14  1.21778000E-07  4.99904000E+04
   2  3  0  1.92809000E-05  4.02800000E+02
   2  4  0  9.04024000E-04  1.10710000E+03
   2  6  0  2.39379000E-02  6.68730000E+03
   2  7  0  3.41518000E-02  6.83100000E+03
   2  8  0  5.10657000E-04  7.16040000E+03
   2  9  0  7.64065000E-04  7.19160000E+03
   2 11  0  5.67896000E-03  8.08700000E+03
   2 12  0  8.44465000E-03  8.10500000E+03
   2 13  0  6.97826000E-05  8.23720000E+03
   2 14  0  1.07569000E-04  8.23720000E+03
   2 18  0  7.84435000E-04  8.31497000E+03
   2 19  0  1.13049000E-03  8.31962000E+03
   2  3 12  4.40603000E-02  1.23940000E+02
   2  3 13  1.18658000E-02  2.40640000E+02
   2  3 14  1.82540000E-02  2.46500000E+02
   2  3 15  2.96209000E-02  3.85770000E+02
   2  3 16  4.85604000E-03  3.86600000E+02
   2  4 10  5.69877000E-02  7.25710000E+02
   2  4 11  2.41932000E-02  7.95800000E+02
   2  4 12  4.22801000E-02  8.28240000E+02
   2  4 13  6.41925000E-02  9.44940000E+02
   2  4 14  8.02490000E-02  9.50800000E+02
   2  4 15  4.19702000E-02  1.09007000E+03
   2  4 16  6.67631000E-03  1.09090000E+03
   2  5  5  1.17132000E-02  4.62060000E+03
   2  5  6  2.35253000E-02  4.79830000E+03
   2  5  7  4.17559000E-02  4.94340000E+03
   2  5  8  3.26376000E-02  5.25360000E+03
   2  5  9  4.48870000E-02  5.28540000E+03
   2  5 10  4.64974000E-03  6.10381000E+03
   2  5 11  5.18708000E-03  6.17390000E+03
   2  5 12  9.09906000E-03  6.20634000E+03
   2  5 13  6.07378000E-03  6.32304000E+03
   2  5 14  8.29253000E-03  6.32890000E+03
   2  5 15  2.83990000E-04  6.46817000E+03
   2  5 16  4.18498000E-05  6.46900000E+03
   2  6  6  9.32701000E-05  4.97600000E+03
   2  6  7  6.98294000E-04  5.12110000E+03
   2  6  8  1.18077000E-03  5.43130000E+03
   2  6  9  1.28184000E-02  5.46310000E+03
   2  6 10  3.70264000E-03  6.28151000E+03
   2  6 11  1.79351000E-05  6.35160000E+03
   2  6 12  1.42288000E-04  6.38404000E+03
   2  6 13  2.13437000E-04  6.50074000E+03
   2  6 14  1.53475000E-03  6.50660000E+03
   2  6 15  9.74541000E-05  6.64587000E+03
   2  6 16  4.36445000E-05  6.64670000E+03
   2  7  7  1.00559000E-03  5.26620000E+03
   2  7  8  6.98316000E-03  5.57640000E+03
   2  7  9  4.57440000E-03  5.60820000E+03
   2  7 10  6.55092000E-03  6.42661000E+03
   2  7 11  1.45887000E-04  6.49670000E+03
   2  7 12  3.25245000E-04  6.52914000E+03
   2  7 13  6.55264000E-04  6.64584000E+03
   2  7 14  4.37640000E-04  6.65170000E+03
   2  7 15  2.67239000E-04  6.79097000E+03
   2  7 16  2.75023000E-05  6.79180000E+03
   2  8  8  1.90116000E-03  5.88660000E+03
   2  8  9  6.37199000E-02  5.91840000E+03
   2  8 10  4.80865000E-03  6.73681000E+03
   2  8 11  3.29428000E-04  6.80690000E+03
   2  8 12  1.60100000E-03  6.83934000E+03
   2  8 13  6.94719000E-04  6.95604000E+03
   2  8 14  8.41310000E-03  6.96190000E+03
   2  8 15  3.30629000E-04  7.10117000E+03
   2  8 16  1.17179000E-04  7.10200000E+03
   2  9  9  1.78891000E-02  5.95020000E+03
   2  9 10  6.67281000E-03  6.76861000E+03
   2  9 11  2.54807000E-03  6.83870000E+03
   2  9 12  1.10194000E-03  6.87114000E+03
   2  9 13  8.27625000E-03  6.98784000E+03
   2  9 14  4.96588000E-03  6.99370000E+03
   2  9 15  1.04085000E-03  7.13297000E+03
   2  9 16  1.01036000E-04  7.13380000E+03
   2 10 10  4.36456000E-04  7.58702000E+03
   2 10 11  8.19086000E-04  7.65711000E+03
   2 10 12  1.43251000E-03  7.68955000E+03
   2 10 13  8.93811000E-04  7.80625000E+03
   2 10 14  1.22684000E-03  7.81211000E+03
   2 10 15  3.40790000E-05  7.95138000E+03
   2 10 16  4.78305000E-06  7.95221000E+03
   2 11 11  5.97879000E-07  7.72720000E+03
   2 11 12  2.98929000E-05  7.75964000E+03
   2 11 13  5.08191000E-05  7.87634000E+03
   2 11 14  3.15669000E-04  7.88220000E+03
   2 11 15  1.31528000E-05  8.02147000E+03
   2 11 16  6.57661000E-06  8.02230000E+03
   2 12 12  2.63064000E-05  7.79208000E+03
   2 12 13  1.63816000E-04  7.90878000E+03
   2 12 14  1.14787000E-04  7.91464000E+03
   2 12 15  4.60350000E-05  8.05391000E+03
   2 12 16  4.78301000E-06  8.05474000E+03
   2 13 13  5.91917000E-05  8.02548000E+03
   2 13 14  1.18203000E-03  8.03134000E+03
   2 13 15  4.24501000E-05  8.17061000E+03
   2 13 16  1.19576000E-05  8.17144000E+03
   2 14 14  3.50946000E-04  8.03720000E+03
   2 14 15  1.02877000E-04  8.17647000E+03
   2 14 16  1.08600000E-05  8.17730000E+03
   2 15 15  5.00836000E-07  8.31574000E+03
   2 15 16  2.50410000E-06  8.31657000E+03
   2 16 16  1.11042000E-06  8.31740000E+03
   3  4  0  5.42864000E-07  7.04300000E+02
   3  5  0  5.18024000E-03  6.04969000E+03
   3  7  0  1.04641000E-04  6.38600000E+03
   3  8  0  1.42311000E-01  6.71340000E+03
   3 10  0  1.00571000E-03  7.55440000E+03
   3 12  0  2.24122000E-05  7.65770000E+03
   3 13  0  2.49912000E-02  7.78590000E+03
   3 15  0  1.85561000E-05  7.92133000E+03
   3 17  0  1.70461000E-04  7.89234000E+03
   3 19  0  4.97924000E-06  7.91682000E+03
   3  4 10  8.85629000E-03  3.22910000E+02
   3  4 11  4.76509000E-02  3.93000000E+02
   3  4 12  1.55609000E-02  4.25440000E+02
   3  4 13  5.89657000E-02  5.42140000E+02
   3  4 14  2.12662000E-02  5.48000000E+02
   3  4 15  1.36149000E-03  6.87270000E+02
   3  4 16  2.61184000E-04  6.88100000E+02
   3  5  5  8.61214000E-04  4.21780000E+03
   3  5  6  2.34289000E-02  4.39550000E+03
   3  5  7  2.27291000E-03  4.54060000E+03
   3  5  8  2.32394000E-03  4.85080000E+03
   3  5  9  2.89284000E-03  4.88260000E+03
   3  5 10  3.15197000E-04  5.70101000E+03
   3  5 11  3.47362000E-03  5.77110000E+03
   3  5 12  4.40216000E-04  5.80354000E+03
   3  5 13  3.09268000E-04  5.92024000E+03
   3  5 14  3.27750000E-04  5.92610000E+03
   3  5 15  7.32485000E-05  6.06537000E+03
   3  5 16  5.91906000E-06  6.06620000E+03
   3  6  6  2.35568000E-02  4.57320000E+03
   3  6  7  6.94605000E-02  4.71830000E+03
   3  6  8  3.71204000E-02  5.02850000E+03
   3  6  9  6.02639000E-02  5.06030000E+03
   3  6 10  5.59494000E-03  5.87871000E+03
   3  6 11  8.83017000E-03  5.94880000E+03
   3  6 12  1.48775000E-02  5.98124000E+03
   3  6 13  6.89927000E-03  6.09794000E+03
   3  6 14  1.11751000E-02  6.10380000E+03
   3  6 15  3.15920000E-04  6.24307000E+03
   3  6 16  3.77325000E-05  6.24390000E+03
   3  7  7  1.76387000E-03  4.86340000E+03
   3  7  8  4.11236000E-02  5.17360000E+03
   3  7  9  5.63291000E-03  5.20540000E+03
   3  7 10  4.62440000E-04  6.02381000E+03
   3  7 11  1.06490000E-02  6.09390000E+03
   3  7 12  6.39995000E-04  6.12634000E+03
   3  7 13  6.47396000E-03  6.24304000E+03
   3  7 14  8.36770000E-04  6.24890000E+03
   3  7 15  1.84967000E-04  6.38817000E+03
   3  7 16  1.33180000E-05  6.38900000E+03
   3  8  8  3.81483000E-02  5.48380000E+03
   3  8  9  1.59706000E-01  5.51560000E+03
   3  8 10  5.61567000E-04  6.33401000E+03
   3  8 11  5.64320000E-03  6.40410000E+03
   3  8 12  8.26268000E-03  6.43654000E+03
   3  8 13  1.19566000E-02  6.55324000E+03
   3  8 14  2.68835000E-02  6.55910000E+03
   3  8 15  1.26080000E-03  6.69837000E+03
   3  8 16  3.26289000E-04  6.69920000E+03
   3  9  9  7.65693000E-03  5.54740000E+03
   3  9 10  5.70433000E-04  6.36581000E+03
   3  9 11  8.12236000E-03  6.43590000E+03
   3  9 12  1.03585000E-03  6.46834000E+03
   3  9 13  2.08771000E-02  6.58504000E+03
   3  9 14  2.34029000E-03  6.59090000E+03
   3  9 15  5.12001000E-04  6.73017000E+03
   3  9 16  2.51555000E-05  6.73100000E+03
   3 10 10  2.81164000E-05  7.18422000E+03
   3 10 11  8.34655000E-04  7.25431000E+03
   3 10 12  9.02740000E-05  7.28675000E+03
   3 10 13  7.17716000E-05  7.40345000E+03
   3 10 14  6.58533000E-05  7.40931000E+03
   3 10 15  1.55379000E-05  7.54858000E+03
   3 10 16  7.39920000E-07  7.54941000E+03
   3 11 11  7.74864000E-04  7.32440000E+03
   3 11 12  2.24181000E-03  7.35684000E+03
   3 11 13  1.01235000E-03  7.47354000E+03
   3 11 14  1.49015000E-03  7.47940000E+03
   3 11 15  3.77629000E-05  7.61867000E+03
   3 11 16  3.63091000E-06  7.61950000E+03
   3 12 12  5.75289000E-05  7.38928000E+03
   3 12 13  1.29117000E-03  7.50598000E+03
   3 12 14  1.55119000E-04  7.51184000E+03
   3 12 15  2.91283000E-05  7.65111000E+03
   3 12 16  2.18465000E-06  7.65194000E+03
   3 13 13  9.25589000E-04  7.62268000E+03
   3 13 14  3.64337000E-03  7.62854000E+03
   3 13 15  1.37616000E-04  7.76781000E+03
   3 13 16  3.62532000E-05  7.76864000E+03
   3 14 14  2.19780000E-04  7.63440000E+03
   3 14 15  7.29615000E-05  7.77367000E+03
   3 14 16  3.60286000E-06  7.77450000E+03
   3 15 15  1.47982000E-06  7.91294000E+03
   3 15 16  2.95945000E-06  7.91377000E+03
   4  5  0  9.55798000E-03  5.36209000E+03
   4  6  0  6.48298000E-05  5.55370000E+03
   4  7  0  5.92819000E-05  5.69830000E+03
   4  8  0  1.32890000E-02  6.02499000E+03
   4  9  0  1.17530000E-01  6.05737000E+03
   4 10  0  1.27740000E-03  6.86730000E+03
   4 11  0  1.00730000E-05  6.93850000E+03
   4 12  0  9.75548000E-06  6.97294000E+03
   4 13  0  2.23329000E-03  7.10300000E+03
   4 14  0  1.99820000E-02  7.10300000E+03
   4 15  0  2.66279000E-06  7.23419000E+03
   4 16  0  1.53040000E-05  7.23750000E+03
   4 17  0  2.35569000E-04  7.18804000E+03
   4 18  0  2.28459000E-06  7.20787000E+03
   4 19  0  1.96740000E-06  7.21252000E+03
   4  5  5  1.14997000E-03  3.51350000E+03
   4  5  6  7.30959000E-04  3.69120000E+03
   4  5  7  2.62428000E-02  3.83630000E+03
   4  5  8  2.70041000E-03  4.14650000E+03
   4  5  9  3.37478000E-03  4.17830000E+03
   4  5 10  4.22144000E-04  4.99671000E+03
   4  5 11  1.28808000E-04  5.06680000E+03
   4  5 12  3.86434000E-03  5.09924000E+03
   4  5 13  2.51418000E-04  5.21594000E+03
   4  5 14  2.83225000E-04  5.22180000E+03
   4  5 15  1.01652000E-04  5.36107000E+03
   4  5 16  2.32795000E-05  5.36190000E+03
   4  6  6  2.00978000E-04  3.86890000E+03
   4  6  7  4.39223000E-02  4.01400000E+03
   4  6  8  2.62198000E-03  4.32420000E+03
   4  6  9  2.34687000E-02  4.35600000E+03
   4  6 10  1.44329000E-04  5.17441000E+03
   4  6 11  7.37171000E-05  5.24450000E+03
   4  6 12  6.70987000E-03  5.27694000E+03
   4  6 13  4.47746000E-04  5.39364000E+03
   4  6 14  3.40048000E-03  5.39950000E+03
   4  6 15  1.11742000E-04  5.53877000E+03
   4  6 16  3.72472000E-05  5.53960000E+03
   4  7  7  5.97408000E-02  4.15910000E+03
   4  7  8  6.15547000E-02  4.46930000E+03
   4  7  9  8.99570000E-02  4.50110000E+03
   4  7 10  6.19450000E-03  5.31951000E+03
   4  7 11  9.23229000E-03  5.38960000E+03
   4  7 12  2.18427000E-02  5.42204000E+03
   4  7 13  1.09305000E-02  5.53874000E+03
   4  7 14  1.57340000E-02  5.54460000E+03
   4  7 15  5.08264000E-04  5.68387000E+03
   4  7 16  8.30274000E-05  5.68470000E+03
   4  8  8  8.89317000E-03  4.77950000E+03
   4  8  9  1.68931000E-01  4.81130000E+03
   4  8 10  6.05274000E-04  5.62971000E+03
   4  8 11  5.53284000E-04  5.69980000E+03
   4  8 12  8.70764000E-03  5.73224000E+03
   4  8 13  2.76257000E-03  5.84894000E+03
   4  8 14  2.22297000E-02  5.85480000E+03
   4  8 15  2.88664000E-04  5.99407000E+03
   4  8 16  1.24929000E-04  5.99490000E+03
   4  9  9  1.13968000E-01  4.84310000E+03
   4  9 10  7.97725000E-04  5.66151000E+03
   4  9 11  4.55508000E-03  5.73160000E+03
   4  9 12  1.43219000E-02  5.76404000E+03
   4  9 13  2.65405000E-02  5.88074000E+03
   4  9 14  3.38304000E-02  5.88660000E+03
   4  9 15  3.07537000E-03  6.02587000E+03
   4  9 16  3.55411000E-04  6.02670000E+03
   4 10 10  3.87960000E-05  6.47992000E+03
   4 10 11  2.63810000E-05  6.55001000E+03
   4 10 12  9.14076000E-04  6.58245000E+03
   4 10 13  6.12979000E-05  6.69915000E+03
   4 10 14  7.29376000E-05  6.70501000E+03
   4 10 15  1.47424000E-05  6.84428000E+03
   4 10 16  3.87960000E-06  6.84511000E+03
   4 11 11  6.12369000E-06  6.62010000E+03
   4 11 12  1.38701000E-03  6.65254000E+03
   4 11 13  9.03205000E-05  6.76924000E+03
   4 11 14  6.76658000E-04  6.77510000E+03
   4 11 15  1.53093000E-05  6.91437000E+03
   4 11 16  5.35803000E-06  6.91520000E+03
   4 12 12  1.78295000E-03  6.68498000E+03
   4 12 13  1.43625000E-03  6.80168000E+03
   4 12 14  2.28948000E-03  6.80754000E+03
   4 12 15  5.46836000E-05  6.94681000E+03
   4 12 16  9.35355000E-06  6.94764000E+03
   4 13 13  2.07968000E-04  6.91838000E+03
   4 13 14  3.61531000E-03  6.92424000E+03
   4 13 15  3.10390000E-05  7.06351000E+03
   4 13 16  1.31925000E-05  7.06434000E+03
   4 14 14  2.73537000E-03  6.93010000E+03
   4 14 15  3.50967000E-04  7.06937000E+03
   4 14 16  4.03988000E-05  7.07020000E+03
   4 15 15  7.76012000E-07  7.20864000E+03
   4 15 16  4.65590000E-06  7.20947000E+03
   4 16 16  1.76836000E-06  7.21030000E+03
   5  6  0  9.96770000E-06  1.77700000E+02
   5  7  0  1.21580000E-04  3.22800000E+02
   5 11  0  4.40280000E-04  1.55330000E+03
   5 12  0  5.15330000E-04  1.58574000E+03
   5 18  0  1.00880000E-04  1.82977000E+03
   5 19  0  1.10870000E-04  1.83442000E+03
   5  6 15  2.37397000E-02  1.60670000E+02
   5  6 16  3.19024000E-02  1.61500000E+02
   5  7 13  4.47069000E-02  1.60640000E+02
   5  7 14  6.42459000E-02  1.66500000E+02
   5  7 15  6.39492000E-02  3.05770000E+02
   5  7 16  8.07231000E-02  3.06600000E+02
   5  8 10  2.71528000E-02  2.51610000E+02
   5  8 11  5.99127000E-03  3.21700000E+02
   5  8 12  5.23404000E-03  3.54140000E+02
   5  8 13  8.72901000E-03  4.70840000E+02
   5  8 14  1.09732000E-02  4.76700000E+02
   5  8 15  3.24509000E-03  6.15970000E+02
   5  8 16  3.11932000E-03  6.16800000E+02
   5  9 10  3.84869000E-02  2.83410000E+02
   5  9 11  1.25322000E-03  3.53500000E+02
   5  9 12  1.13029000E-02  3.85940000E+02
   5  9 13  1.15918000E-02  5.02640000E+02
   5  9 14  1.75039000E-02  5.08500000E+02
   5  9 15  3.69104000E-03  6.47770000E+02
   5  9 16  5.73885000E-03  6.48600000E+02
   5 10 10  5.07697000E-03  1.10182000E+03
   5 10 11  8.52725000E-03  1.17191000E+03
   5 10 12  1.52113000E-02  1.20435000E+03
   5 10 13  1.64602000E-02  1.32105000E+03
   5 10 14  2.37390000E-02  1.32691000E+03
   5 10 15  3.88838000E-03  1.46618000E+03
   5 10 16  4.95807000E-03  1.46701000E+03
   5 11 11  4.22496000E-04  1.24200000E+03
   5 11 12  1.08046000E-03  1.27444000E+03
   5 11 13  6.36806000E-04  1.39114000E+03
   5 11 14  3.25733000E-04  1.39700000E+03
   5 11 15  6.22096000E-05  1.53627000E+03
   5 11 16  2.60493000E-04  1.53710000E+03
   5 12 12  1.42877000E-03  1.30688000E+03
   5 12 13  8.80351000E-04  1.42358000E+03
   5 12 14  2.18953000E-03  1.42944000E+03
   5 12 15  2.71157000E-04  1.56871000E+03
   5 12 16  5.09719000E-04  1.56954000E+03
   5 13 13  1.91707000E-04  1.54028000E+03
   5 13 14  8.97664000E-04  1.54614000E+03
   5 13 15  2.57774000E-04  1.68541000E+03
   5 13 16  1.94102000E-03  1.68624000E+03
   5 14 14  5.09288000E-04  1.55200000E+03
   5 14 15  1.92970000E-03  1.69127000E+03
   5 14 16  1.10111000E-03  1.69210000E+03
   5 15 15  1.01261000E-04  1.83054000E+03
   5 15 16  9.84679000E-04  1.83137000E+03
   5 16 16  2.65005000E-04  1.83220000E+03
   6  8  0  5.01653000E-04  4.55300000E+02
   6 10  0  4.24901000E-04  1.30551000E+03
   6 13  0  2.09834000E-03  1.52474000E+03
   6 17  0  7.72181000E-05  1.63224000E+03
   6  7 15  1.80415000E-02  1.28070000E+02
   6  7 16  2.02666000E-02  1.28900000E+02
   6  8 11  8.55878000E-02  1.44000000E+02
   6  8 12  1.12156000E-01  1.76440000E+02
   6  8 13  3.72987000E-02  2.93140000E+02
   6  8 14  4.25620000E-02  2.99000000E+02
   6  8 15  8.56224000E-02  4.38270000E+02
   6  8 16  1.29613000E-01  4.39100000E+02
   6  9 10  1.43791000E-02  1.05710000E+02
   6  9 11  9.92001000E-02  1.75800000E+02
   6  9 12  9.63010000E-03  2.08240000E+02
   6  9 13  1.62386000E-03  3.24940000E+02
   6  9 14  4.89793000E-03  3.30800000E+02
   6  9 15  2.61640000E-03  4.70070000E+02
   6  9 16  2.12118000E-03  4.70900000E+02
   6 10 10  8.36797000E-04  9.24120000E+02
   6 10 11  1.15987000E-02  9.94210000E+02
   6 10 12  1.84239000E-03  1.02665000E+03
   6 10 13  3.84145000E-04  1.14335000E+03
   6 10 14  1.33987000E-03  1.14921000E+03
   6 10 15  4.42076000E-05  1.28848000E+03
   6 10 16  3.41183000E-04  1.28931000E+03
   6 11 11  8.83558000E-03  1.06430000E+03
   6 11 12  2.66874000E-02  1.09674000E+03
   6 11 13  2.50751000E-02  1.21344000E+03
   6 11 14  4.12449000E-02  1.21930000E+03
   6 11 15  4.92492000E-03  1.35857000E+03
   6 11 16  8.56816000E-03  1.35940000E+03
   6 12 12  7.81737000E-04  1.12918000E+03
   6 12 13  2.26561000E-03  1.24588000E+03
   6 12 14  1.77226000E-03  1.25174000E+03
   6 12 15  3.77431000E-03  1.39101000E+03
   6 12 16  1.09117000E-03  1.39184000E+03
   6 13 13  8.39223000E-04  1.36258000E+03
   6 13 14  2.44508000E-03  1.36844000E+03
   6 13 15  4.46459000E-04  1.50771000E+03
   6 13 16  8.29139000E-04  1.50854000E+03
   6 14 14  5.71177000E-04  1.37430000E+03
   6 14 15  1.54361000E-03  1.51357000E+03
   6 14 16  3.27291000E-04  1.51440000E+03
   6 15 15  3.68850000E-04  1.65284000E+03
   6 15 16  3.03205000E-03  1.65367000E+03
   6 16 16  1.22571000E-04  1.65450000E+03
   7  8  0  1.76578000E-05  3.10200000E+02
   7  9  0  2.20475000E-04  3.42000000E+02
   7 10  0  6.01821000E-04  1.16041000E+03
   7 13  0  2.81120000E-04  1.40200000E+03
   7 14  0  2.27510000E-03  1.40200000E+03
   7 17  0  1.10040000E-04  1.48714000E+03
   7  8 13  1.16165000E-02  1.48040000E+02
   7  8 14  1.01420000E-02  1.53900000E+02
   7  8 15  8.85791000E-03  2.93170000E+02
   7  8 16  1.31386000E-02  2.94000000E+02
   7  9 13  5.08114000E-02  1.79840000E+02
   7  9 14  7.61185000E-02  1.85700000E+02
   7  9 15  8.57314000E-02  3.24970000E+02
   7  9 16  1.02738000E-01  3.25800000E+02
   7 10 10  7.31206000E-04  7.79020000E+02
   7 10 11  1.10110000E-03  8.49110000E+02
   7 10 12  1.63473000E-02  8.81550000E+02
   7 10 13  9.85856000E-04  9.98250000E+02
   7 10 14  1.07384000E-03  1.00411000E+03
   7 10 15  5.07696000E-04  1.14338000E+03
   7 10 16  7.74837000E-04  1.14421000E+03
   7 11 11  1.46549000E-04  9.19200000E+02
   7 11 12  1.95098000E-02  9.51640000E+02
   7 11 13  4.87174000E-04  1.06834000E+03
   7 11 14  3.54640000E-03  1.07420000E+03
   7 11 15  5.79058000E-04  1.21347000E+03
   7 11 16  3.44436000E-03  1.21430000E+03
   7 12 12  2.68792000E-02  9.84080000E+02
   7 12 13  3.69630000E-02  1.10078000E+03
   7 12 14  4.95546000E-02  1.10664000E+03
   7 12 15  1.02769000E-02  1.24591000E+03
   7 12 16  1.17722000E-02  1.24674000E+03
   7 13 13  2.48324000E-04  1.21748000E+03
   7 13 14  4.50476000E-03  1.22334000E+03
   7 13 15  2.27746000E-04  1.36261000E+03
   7 13 16  2.86801000E-03  1.36344000E+03
   7 14 14  2.24417000E-03  1.22920000E+03
   7 14 15  2.25485000E-03  1.36847000E+03
   7 14 16  1.99052000E-03  1.36930000E+03
   7 15 15  1.12383000E-04  1.50774000E+03
   7 15 16  3.92582000E-03  1.50857000E+03
