 PENELOPE (v. 2005)  Material data file ...............
 Material:  POLYSTYRENE                                                
 Mass density = 1.06000000E+00 g/cm**3
 Number of elements in the molecule =  2
   atomic number =  1,  atoms/molecule = 1.00000000E+00
   atomic number =  6,  atoms/molecule = 1.00000000E+00
 Mean excitation energy = 6.87000000E+01 eV
 Number of oscillators =  3 (E/P inelastic model)
   1  4.00000000E+00  0.00000000E+00  1.64447974E+01   0  30
   2  1.00000000E+00  1.40000000E+01  6.22399346E+01   1  30
   3  2.00000000E+00  2.85000000E+02  1.25967050E+03   6  30
 Number of shells =  3 (Compton IA model)
   1  4.00000000E+00  0.00000000E+00  8.08495838E-01   0  30
   2  1.00000000E+00  1.40000000E+01  8.49000000E-01   1  30
   3  2.00000000E+00  2.85000000E+02  1.53000000E-01   6  30
 *** RELAX:  Z =  1,  NO. OF SHELLS =  1,  NO. OF TRANSITIONS =   0
   1 1s1/2 1  1.40000000E+01
 *** RELAX:  Z =  6,  NO. OF SHELLS =  3,  NO. OF TRANSITIONS =   8
   1 1s1/2 2  2.85000000E+02
   2 2s1/2 2  1.10000000E+01
   3 2p1/2 2  1.10000000E+01
   1  3  0  5.61488000E-04  2.82020000E+02
   1  4  0  1.12060000E-03  2.82030000E+02
   1  2  2  4.13609000E-01  2.55890000E+02
   1  2  3  1.36190000E-01  2.64460000E+02
   1  2  4  2.71099000E-01  2.64470000E+02
   1  3  3  4.20748000E-03  2.73030000E+02
   1  3  4  1.10012000E-01  2.73040000E+02
   1  4  4  6.32008000E-02  2.73050000E+02
 *** Electron scaled bremss x-section,  ZEQ = 4.30116E+00,  NDATA =  57
 1.00E+03 1.08077E+01 1.08998E+01 1.09836E+01 1.10527E+01 1.11090E+01
          1.11928E+01 1.12400E+01 1.12573E+01 1.12479E+01 1.12165E+01
          1.11691E+01 1.11079E+01 1.10352E+01 1.09528E+01 1.08625E+01
          1.07669E+01 1.06691E+01 1.05758E+01 1.04944E+01 1.04274E+01
          1.03746E+01 1.03511E+01 1.03269E+01 1.03063E+01 1.02834E+01
          1.02775E+01 1.02727E+01 1.02721E+01 1.02717E+01 1.02717E+01
          1.02716E+01 1.02713E+01                                     9.395E+00
 1.50E+03 1.21595E+01 1.22642E+01 1.23551E+01 1.24220E+01 1.24678E+01
          1.25139E+01 1.25065E+01 1.24609E+01 1.23836E+01 1.22820E+01
          1.21655E+01 1.20352E+01 1.18903E+01 1.17332E+01 1.15726E+01
          1.14164E+01 1.12654E+01 1.11193E+01 1.09792E+01 1.08516E+01
          1.07335E+01 1.06712E+01 1.06116E+01 1.05706E+01 1.05395E+01
          1.05316E+01 1.05257E+01 1.05250E+01 1.05243E+01 1.05241E+01
          1.05241E+01 1.05250E+01                                     1.014E+01
 2.00E+03 1.31223E+01 1.32300E+01 1.33192E+01 1.33757E+01 1.34042E+01
          1.34022E+01 1.33345E+01 1.32250E+01 1.30825E+01 1.29161E+01
          1.27364E+01 1.25454E+01 1.23431E+01 1.21331E+01 1.19234E+01
          1.17219E+01 1.15289E+01 1.13430E+01 1.11645E+01 1.09986E+01
          1.08442E+01 1.07669E+01 1.06940E+01 1.06433E+01 1.06017E+01
          1.05916E+01 1.05839E+01 1.05830E+01 1.05821E+01 1.05819E+01
          1.05818E+01 1.05826E+01                                     1.057E+01
 3.00E+03 1.44790E+01 1.45799E+01 1.46542E+01 1.46821E+01 1.46708E+01
          1.45695E+01 1.43861E+01 1.41592E+01 1.39016E+01 1.36248E+01
          1.33416E+01 1.30554E+01 1.27672E+01 1.24811E+01 1.22015E+01
          1.19336E+01 1.16782E+01 1.14347E+01 1.12031E+01 1.09860E+01
          1.07883E+01 1.06991E+01 1.06163E+01 1.05565E+01 1.04993E+01
          1.04857E+01 1.04751E+01 1.04737E+01 1.04726E+01 1.04724E+01
          1.04723E+01 1.04726E+01                                     1.103E+01
 4.00E+03 1.54383E+01 1.55248E+01 1.55784E+01 1.55746E+01 1.55231E+01
          1.53281E+01 1.50416E+01 1.47137E+01 1.43608E+01 1.39957E+01
          1.36327E+01 1.32753E+01 1.29242E+01 1.25828E+01 1.22526E+01
          1.19368E+01 1.16362E+01 1.13508E+01 1.10807E+01 1.08271E+01
          1.05997E+01 1.05028E+01 1.04142E+01 1.03493E+01 1.02826E+01
          1.02670E+01 1.02548E+01 1.02532E+01 1.02520E+01 1.02518E+01
          1.02517E+01 1.02517E+01                                     1.126E+01
 5.00E+03 1.61785E+01 1.62477E+01 1.62787E+01 1.62433E+01 1.61535E+01
          1.58727E+01 1.54950E+01 1.50805E+01 1.46479E+01 1.42108E+01
          1.37844E+01 1.33712E+01 1.29712E+01 1.25864E+01 1.22167E+01
          1.18636E+01 1.15280E+01 1.12096E+01 1.09086E+01 1.06256E+01
          1.03736E+01 1.02686E+01 1.01736E+01 1.01043E+01 1.00321E+01
          1.00153E+01 1.00022E+01 1.00004E+01 9.99916E+00 9.99901E+00
          9.99888E+00 9.99868E+00                                     1.138E+01
 6.00E+03 1.67834E+01 1.68339E+01 1.68419E+01 1.67759E+01 1.66501E+01
          1.62908E+01 1.58322E+01 1.53424E+01 1.48419E+01 1.43450E+01
          1.38666E+01 1.34082E+01 1.29685E+01 1.25478E+01 1.21455E+01
          1.17621E+01 1.13981E+01 1.10526E+01 1.07253E+01 1.04173E+01
          1.01431E+01 1.00291E+01 9.92678E+00 9.85312E+00 9.77726E+00
          9.75992E+00 9.74637E+00 9.74454E+00 9.74325E+00 9.74309E+00
          9.74296E+00 9.74271E+00                                     1.145E+01
 8.00E+03 1.77324E+01 1.77449E+01 1.77076E+01 1.75843E+01 1.73928E+01
          1.68951E+01 1.62983E+01 1.56838E+01 1.50740E+01 1.44828E+01
          1.39238E+01 1.33962E+01 1.28947E+01 1.24171E+01 1.19633E+01
          1.15325E+01 1.11243E+01 1.07357E+01 1.03653E+01 1.00156E+01
          9.70151E+00 9.56764E+00 9.44839E+00 9.36560E+00 9.28634E+00
          9.26865E+00 9.25492E+00 9.25308E+00 9.25180E+00 9.25166E+00
          9.25154E+00 9.25129E+00                                     1.150E+01
 1.00E+04 1.84628E+01 1.84376E+01 1.83570E+01 1.81812E+01 1.79316E+01
          1.73153E+01 1.66045E+01 1.58903E+01 1.51958E+01 1.45331E+01
          1.39144E+01 1.33349E+01 1.27872E+01 1.22658E+01 1.17725E+01
          1.13058E+01 1.08641E+01 1.04422E+01 1.00371E+01 9.65357E+00
          9.30447E+00 9.15040E+00 9.01321E+00 8.92085E+00 8.83952E+00
          8.82173E+00 8.80812E+00 8.80635E+00 8.80508E+00 8.80495E+00
          8.80484E+00 8.80464E+00                                     1.151E+01
 1.50E+04 2.03096E+01 1.98972E+01 1.94726E+01 1.90292E+01 1.85815E+01
          1.77192E+01 1.68876E+01 1.60889E+01 1.53215E+01 1.45840E+01
          1.38763E+01 1.31949E+01 1.25481E+01 1.19328E+01 1.13520E+01
          1.08001E+01 1.02784E+01 9.78802E+00 9.32889E+00 8.89558E+00
          8.49199E+00 8.31241E+00 8.16018E+00 8.05805E+00 7.91719E+00
          7.87356E+00 7.87966E+00 7.88552E+00 7.88186E+00 7.87972E+00
          7.88345E+00 7.88109E+00                                     1.144E+01
 2.00E+04 2.06905E+01 2.04841E+01 2.02106E+01 1.98231E+01 1.93550E+01
          1.83273E+01 1.72521E+01 1.62381E+01 1.53012E+01 1.44406E+01
          1.36542E+01 1.29278E+01 1.22501E+01 1.16045E+01 1.09999E+01
          1.04302E+01 9.88973E+00 9.36771E+00 8.85750E+00 8.36679E+00
          7.89255E+00 7.65811E+00 7.44489E+00 7.30596E+00 7.20494E+00
          7.18345E+00 7.16767E+00 7.16591E+00 7.16447E+00 7.16420E+00
          7.16411E+00 7.16418E+00                                     1.138E+01
 3.00E+04 2.19118E+01 2.15603E+01 2.11385E+01 2.05987E+01 1.99825E+01
          1.86974E+01 1.74151E+01 1.62443E+01 1.51900E+01 1.42386E+01
          1.33682E+01 1.25709E+01 1.18311E+01 1.11281E+01 1.04701E+01
          9.84946E+00 9.25711E+00 8.68241E+00 8.11826E+00 7.56928E+00
          7.02004E+00 6.73678E+00 6.47398E+00 6.29818E+00 6.16901E+00
          6.14086E+00 6.12010E+00 6.11780E+00 6.11590E+00 6.11556E+00
          6.11544E+00 6.11553E+00                                     1.124E+01
 4.00E+04 2.30776E+01 2.23346E+01 2.15817E+01 2.08161E+01 2.00643E+01
          1.86740E+01 1.73916E+01 1.62047E+01 1.51056E+01 1.40891E+01
          1.31419E+01 1.22685E+01 1.14707E+01 1.07278E+01 1.00374E+01
          9.38914E+00 8.77220E+00 8.18169E+00 7.60661E+00 7.02025E+00
          6.40291E+00 6.09188E+00 5.80194E+00 5.59798E+00 5.43195E+00
          5.40933E+00 5.37819E+00 5.37310E+00 5.37160E+00 5.37126E+00
          5.37163E+00 5.37123E+00                                     1.111E+01
 5.00E+04 2.36144E+01 2.27802E+01 2.19381E+01 2.10882E+01 2.02591E+01
          1.87403E+01 1.73545E+01 1.60861E+01 1.49232E+01 1.38553E+01
          1.28717E+01 1.19727E+01 1.11588E+01 1.04031E+01 9.69881E+00
          9.03878E+00 8.40688E+00 7.79740E+00 7.19883E+00 6.58509E+00
          5.93683E+00 5.60841E+00 5.29913E+00 5.07619E+00 4.88374E+00
          4.85257E+00 4.81628E+00 4.81071E+00 4.80849E+00 4.80812E+00
          4.80823E+00 4.80785E+00                                     1.100E+01
 6.00E+04 2.40080E+01 2.30966E+01 2.21802E+01 2.12607E+01 2.03691E+01
          1.87476E+01 1.72805E+01 1.59494E+01 1.47390E+01 1.36322E+01
          1.26218E+01 1.17074E+01 1.08837E+01 1.01210E+01 9.40814E+00
          8.74137E+00 8.10118E+00 7.48063E+00 6.86777E+00 6.23633E+00
          5.56692E+00 5.22644E+00 4.90372E+00 4.66708E+00 4.45261E+00
          4.41272E+00 4.37177E+00 4.36594E+00 4.36308E+00 4.36267E+00
          4.36255E+00 4.36214E+00                                     1.091E+01
 8.00E+04 2.45274E+01 2.34937E+01 2.24607E+01 2.14353E+01 2.04499E+01
          1.86770E+01 1.70921E+01 1.56716E+01 1.43956E+01 1.32405E+01
          1.21989E+01 1.12756E+01 1.04476E+01 9.68098E+00 8.95441E+00
          8.26637E+00 7.60105E+00 6.95403E+00 6.31980E+00 5.67712E+00
          5.00683E+00 4.66244E+00 4.31993E+00 4.05402E+00 3.80897E+00
          3.75081E+00 3.70422E+00 3.69865E+00 3.69402E+00 3.69343E+00
          3.69298E+00 3.69270E+00                                     1.077E+01
 1.00E+05 2.50025E+01 2.38204E+01 2.26528E+01 2.15169E+01 2.04427E+01
          1.85379E+01 1.68693E+01 1.53963E+01 1.40875E+01 1.29138E+01
          1.18570E+01 1.09236E+01 1.00844E+01 9.30581E+00 8.56649E+00
          7.86734E+00 7.19879E+00 6.54959E+00 5.91345E+00 5.26791E+00
          4.59221E+00 4.24274E+00 3.89061E+00 3.61023E+00 3.33891E+00
          3.27266E+00 3.21956E+00 3.21314E+00 3.20780E+00 3.20716E+00
          3.20660E+00 3.20630E+00                                     1.067E+01
 1.50E+05 2.58901E+01 2.43919E+01 2.29455E+01 2.15958E+01 2.03579E+01
          1.82119E+01 1.63970E+01 1.48348E+01 1.34666E+01 1.22607E+01
          1.11936E+01 1.02459E+01 9.39021E+00 8.59451E+00 7.83792E+00
          7.11922E+00 6.44857E+00 5.80592E+00 5.18083E+00 4.54926E+00
          3.88651E+00 3.53848E+00 3.17646E+00 2.87498E+00 2.56749E+00
          2.48923E+00 2.42620E+00 2.41852E+00 2.41212E+00 2.41135E+00
          2.41064E+00 2.41051E+00                                     1.051E+01
 2.00E+05 2.65904E+01 2.48292E+01 2.31578E+01 2.16473E+01 2.02941E+01
          1.79735E+01 1.60450E+01 1.44174E+01 1.30169E+01 1.17925E+01
          1.07200E+01 9.76689E+00 8.90078E+00 8.09491E+00 7.32917E+00
          6.60016E+00 5.92397E+00 5.29209E+00 4.68310E+00 4.07247E+00
          3.43261E+00 3.09289E+00 2.73112E+00 2.42176E+00 2.09937E+00
          2.01540E+00 1.94769E+00 1.93947E+00 1.93257E+00 1.93169E+00
          1.93094E+00 1.93099E+00                                     1.047E+01
 3.00E+05 2.78231E+01 2.55928E+01 2.35403E+01 2.17971E+01 2.03072E+01
          1.77889E+01 1.57268E+01 1.39947E+01 1.25382E+01 1.12827E+01
          1.01827E+01 9.20607E+00 8.31560E+00 7.48801E+00 6.71142E+00
          5.98143E+00 5.30308E+00 4.68083E+00 4.08510E+00 3.49660E+00
          2.89267E+00 2.57062E+00 2.22265E+00 1.91746E+00 1.58247E+00
          1.49372E+00 1.42228E+00 1.41286E+00 1.40593E+00 1.40508E+00
          1.40431E+00 1.40432E+00                                     1.060E+01
 4.00E+05 2.89741E+01 2.63582E+01 2.40015E+01 2.20891E+01 2.05079E+01
          1.78366E+01 1.56810E+01 1.38689E+01 1.23612E+01 1.10793E+01
          9.95575E+00 8.95440E+00 8.04394E+00 7.20196E+00 6.41560E+00
          5.67773E+00 4.98859E+00 4.35318E+00 3.76376E+00 3.18620E+00
          2.60077E+00 2.29150E+00 1.95446E+00 1.65385E+00 1.31370E+00
          1.22218E+00 1.14877E+00 1.13915E+00 1.13200E+00 1.13109E+00
          1.13041E+00 1.13019E+00                                     1.091E+01
 5.00E+05 3.00222E+01 2.70920E+01 2.44928E+01 2.24549E+01 2.08096E+01
          1.80072E+01 1.57756E+01 1.39071E+01 1.23555E+01 1.10438E+01
          9.89628E+00 8.87068E+00 7.93843E+00 7.07915E+00 6.27962E+00
          5.53135E+00 4.83137E+00 4.18074E+00 3.58423E+00 3.01135E+00
          2.43485E+00 2.13117E+00 1.79813E+00 1.49802E+00 1.15316E+00
          1.05968E+00 9.84541E-01 9.74699E-01 9.67377E-01 9.66462E-01
          9.65783E-01 9.65387E-01                                     1.130E+01
 6.00E+05 3.09761E+01 2.77822E+01 2.49817E+01 2.28447E+01 2.11511E+01
          1.82343E+01 1.59348E+01 1.40284E+01 1.24435E+01 1.11026E+01
          9.93015E+00 8.88170E+00 7.92878E+00 7.05201E+00 6.23841E+00
          5.47857E+00 4.76712E+00 4.10154E+00 3.48892E+00 2.91561E+00
          2.34127E+00 2.03871E+00 1.70506E+00 1.40224E+00 1.05114E+00
          9.55574E-01 8.78431E-01 8.68320E-01 8.60837E-01 8.59892E-01
          8.59222E-01 8.58704E-01                                     1.173E+01
 8.00E+05 3.25087E+01 2.90344E+01 2.60124E+01 2.37470E+01 2.19554E+01
          1.87635E+01 1.62655E+01 1.42894E+01 1.26875E+01 1.13390E+01
          1.01463E+01 9.06846E+00 8.08464E+00 7.17850E+00 6.33468E+00
          5.54244E+00 4.79760E+00 4.09908E+00 3.45172E+00 2.86086E+00
          2.27743E+00 1.96871E+00 1.62598E+00 1.31145E+00 9.40743E-01
          8.39466E-01 7.57551E-01 7.47226E-01 7.38778E-01 7.37800E-01
          7.36844E-01 7.36537E-01                                     1.262E+01
 1.00E+06 3.38142E+01 3.00429E+01 2.67960E+01 2.44241E+01 2.25831E+01
          1.92689E+01 1.66995E+01 1.46855E+01 1.30539E+01 1.16731E+01
          1.04475E+01 9.33931E+00 8.32872E+00 7.39856E+00 6.53251E+00
          5.71848E+00 4.94998E+00 4.22187E+00 3.53528E+00 2.90333E+00
          2.30024E+00 1.98017E+00 1.62201E+00 1.29003E+00 8.93943E-01
          7.85119E-01 6.96978E-01 6.85848E-01 6.76770E-01 6.75692E-01
          6.74700E-01 6.74534E-01                                     1.348E+01
 1.50E+06 3.61542E+01 3.19041E+01 2.83002E+01 2.57694E+01 2.38663E+01
          2.04009E+01 1.77938E+01 1.57177E+01 1.40216E+01 1.25731E+01
          1.12841E+01 1.01183E+01 9.05555E+00 8.07725E+00 7.16504E+00
          6.30403E+00 5.48340E+00 4.69110E+00 3.92215E+00 3.18722E+00
          2.49723E+00 2.13698E+00 1.72652E+00 1.33931E+00 8.70798E-01
          7.41552E-01 6.36828E-01 6.23574E-01 6.12998E-01 6.11649E-01
          6.10480E-01 6.10438E-01                                     1.543E+01
 2.00E+06 3.76365E+01 3.31275E+01 2.93426E+01 2.67586E+01 2.48634E+01
          2.13845E+01 1.87960E+01 1.66863E+01 1.49365E+01 1.34295E+01
          1.20891E+01 1.08786E+01 9.77568E+00 8.75926E+00 7.80836E+00
          6.90628E+00 6.04237E+00 5.20444E+00 4.38228E+00 3.57056E+00
          2.76621E+00 2.35325E+00 1.87914E+00 1.43180E+00 8.94121E-01
          7.43076E-01 6.20285E-01 6.04777E-01 5.92525E-01 5.90898E-01
          5.89956E-01 5.89166E-01                                     1.709E+01
 3.00E+06 3.95223E+01 3.46964E+01 3.07074E+01 2.81053E+01 2.62926E+01
          2.29473E+01 2.03961E+01 1.82661E+01 1.64612E+01 1.48851E+01
          1.34751E+01 1.21981E+01 1.10325E+01 9.95789E+00 8.95301E+00
          7.99973E+00 7.08394E+00 6.18748E+00 5.28812E+00 4.35539E+00
          3.35112E+00 2.80702E+00 2.20750E+00 1.64345E+00 9.73567E-01
          7.81614E-01 6.20761E-01 5.98498E-01 5.79484E-01 5.77198E-01
          5.76874E-01 5.73430E-01                                     1.972E+01
 4.00E+06 4.06553E+01 3.56136E+01 3.15062E+01 2.89455E+01 2.72580E+01
          2.41072E+01 2.16162E+01 1.94853E+01 1.76418E+01 1.60175E+01
          1.45689E+01 1.32614E+01 1.20652E+01 1.09557E+01 9.91384E+00
          8.92265E+00 7.96699E+00 7.02675E+00 6.07564E+00 5.07359E+00
          3.93578E+00 3.27116E+00 2.52717E+00 1.84678E+00 1.05822E+00
          8.37160E-01 6.34877E-01 6.02751E-01 5.74356E-01 5.71339E-01
          5.71147E-01 5.65807E-01                                     2.172E+01
 5.00E+06 4.11538E+01 3.60769E+01 3.19981E+01 2.95673E+01 2.80391E+01
          2.50583E+01 2.26054E+01 2.04648E+01 1.85866E+01 1.69181E+01
          1.54283E+01 1.40888E+01 1.28745E+01 1.17599E+01 1.07171E+01
          9.72181E+00 8.75668E+00 7.79773E+00 6.80548E+00 5.70747E+00
          4.41339E+00 3.66094E+00 2.81896E+00 2.07405E+00 1.16106E+00
          8.86850E-01 6.49844E-01 6.11167E-01 5.71168E-01 5.66348E-01
          5.68211E-01 5.60680E-01                                     2.330E+01
 6.00E+06 4.17321E+01 3.65016E+01 3.23534E+01 2.99874E+01 2.85738E+01
          2.57030E+01 2.33108E+01 2.12038E+01 1.93427E+01 1.76785E+01
          1.61840E+01 1.48333E+01 1.36040E+01 1.24725E+01 1.14131E+01
          1.04024E+01 9.42169E+00 8.44399E+00 7.42386E+00 6.27555E+00
          4.88701E+00 4.05910E+00 3.11233E+00 2.27168E+00 1.25381E+00
          9.44959E-01 6.67927E-01 6.20006E-01 5.69054E-01 5.62851E-01
          5.65242E-01 5.56862E-01                                     2.460E+01
 8.00E+06 4.24805E+01 3.70255E+01 3.27897E+01 3.05536E+01 2.93398E+01
          2.66346E+01 2.43513E+01 2.23127E+01 2.04933E+01 1.88512E+01
          1.73646E+01 1.60116E+01 1.47729E+01 1.36281E+01 1.25543E+01
          1.15294E+01 1.05328E+01 9.53346E+00 8.47727E+00 7.25819E+00
          5.72867E+00 4.78358E+00 3.66564E+00 2.64194E+00 1.43402E+00
          1.05937E+00 7.04296E-01 6.38614E-01 5.66692E-01 5.57595E-01
          5.60538E-01 5.51624E-01                                     2.662E+01
 1.00E+07 4.29290E+01 3.73329E+01 3.30511E+01 3.09186E+01 2.98542E+01
          2.72765E+01 2.50837E+01 2.31080E+01 2.13325E+01 1.97198E+01
          1.82522E+01 1.69103E+01 1.56772E+01 1.45343E+01 1.34604E+01
          1.24342E+01 1.14339E+01 1.04260E+01 9.35041E+00 8.08667E+00
          6.45937E+00 5.42825E+00 4.17824E+00 2.99054E+00 1.60525E+00
          1.16877E+00 7.39527E-01 6.57379E-01 5.66175E-01 5.54226E-01
          5.56960E-01 5.47946E-01                                     2.815E+01
 1.50E+07 4.35088E+01 3.77510E+01 3.34287E+01 3.14491E+01 3.06018E+01
          2.82543E+01 2.62242E+01 2.43755E+01 2.26977E+01 2.11616E+01
          1.97545E+01 1.84608E+01 1.72663E+01 1.61552E+01 1.51076E+01
          1.41028E+01 1.31179E+01 1.21161E+01 1.10288E+01 9.71452E+00
          7.94910E+00 6.78188E+00 5.30428E+00 3.81745E+00 1.99517E+00
          1.41854E+00 8.20922E-01 7.02825E-01 5.69813E-01 5.50913E-01
          5.50605E-01 5.42898E-01                                     3.079E+01
 2.00E+07 4.38108E+01 3.79706E+01 3.36302E+01 3.17345E+01 3.10087E+01
          2.88104E+01 2.68886E+01 2.51315E+01 2.35309E+01 2.20622E+01
          2.07140E+01 1.94729E+01 1.83260E+01 1.72579E+01 1.62488E+01
          1.52774E+01 1.43210E+01 1.33415E+01 1.22668E+01 1.09445E+01
          9.11959E+00 7.87777E+00 6.25787E+00 4.55743E+00 2.34297E+00
          1.64251E+00 8.94653E-01 7.45660E-01 5.77156E-01 5.51781E-01
          5.46520E-01 5.40042E-01                                     3.255E+01
 3.00E+07 4.40895E+01 3.81427E+01 3.37750E+01 3.19783E+01 3.13980E+01
          2.93784E+01 2.75947E+01 2.59625E+01 2.44743E+01 2.31110E+01
          2.18619E+01 2.07152E+01 1.96586E+01 1.86761E+01 1.77462E+01
          1.68463E+01 1.59546E+01 1.50336E+01 1.40095E+01 1.27217E+01
          1.08794E+01 9.57499E+00 7.79995E+00 5.82057E+00 2.94651E+00
          2.03464E+00 1.02447E+00 8.23049E-01 5.95209E-01 5.58254E-01
          5.41398E-01 5.36664E-01                                     3.480E+01
 4.00E+07 4.41877E+01 3.81967E+01 3.38248E+01 3.20878E+01 3.15900E+01
          2.96728E+01 2.79720E+01 2.64188E+01 2.50063E+01 2.37171E+01
          2.25416E+01 2.14681E+01 2.04844E+01 1.95738E+01 1.87128E+01
          1.78778E+01 1.70479E+01 1.61870E+01 1.52221E+01 1.39903E+01
          1.21822E+01 1.08646E+01 9.01659E+00 6.86658E+00 3.50393E+00
          2.37805E+00 1.13955E+00 8.93243E-01 6.15167E-01 5.67947E-01
          5.38928E-01 5.34775E-01                                     3.623E+01
 5.00E+07 4.42024E+01 3.82144E+01 3.38607E+01 3.21662E+01 3.17174E+01
          2.98658E+01 2.82200E+01 2.67209E+01 2.53614E+01 2.41258E+01
          2.30049E+01 2.19876E+01 2.10614E+01 2.02089E+01 1.94055E+01
          1.86264E+01 1.78519E+01 1.70470E+01 1.61399E+01 1.49678E+01
          1.32107E+01 1.19011E+01 1.00215E+01 7.76179E+00 4.03100E+00
          2.68847E+00 1.24493E+00 9.58415E-01 6.35615E-01 5.79081E-01
          5.38107E-01 5.34204E-01                                     3.727E+01
 6.00E+07 4.40892E+01 3.81581E+01 3.38578E+01 3.22097E+01 3.18000E+01
          3.00070E+01 2.84039E+01 2.69409E+01 2.56121E+01 2.44058E+01
          2.33151E+01 2.23307E+01 2.14426E+01 2.06364E+01 1.98911E+01
          1.91823E+01 1.84820E+01 1.77379E+01 1.68680E+01 1.57308E+01
          1.40256E+01 1.27429E+01 1.08706E+01 8.55172E+00 4.51654E+00
          2.97020E+00 1.34292E+00 1.02154E+00 6.55474E-01 5.88724E-01
          5.37766E-01 5.33040E-01                                     3.805E+01
 8.00E+07 4.39658E+01 3.81268E+01 3.39001E+01 3.22958E+01 3.19136E+01
          3.01760E+01 2.86237E+01 2.72150E+01 2.59434E+01 2.47972E+01
          2.37688E+01 2.28493E+01 2.20282E+01 2.12904E+01 2.06125E+01
          1.99713E+01 1.93488E+01 1.87101E+01 1.79778E+01 1.69659E+01
          1.53300E+01 1.40688E+01 1.22232E+01 9.85864E+00 5.39506E+00
          3.52876E+00 1.52206E+00 1.13390E+00 6.93441E-01 6.11063E-01
          5.39416E-01 5.32309E-01                                     3.919E+01
 1.00E+08 4.38101E+01 3.80697E+01 3.39195E+01 3.23548E+01 3.19933E+01
          3.03006E+01 2.87853E+01 2.74126E+01 2.61762E+01 2.50658E+01
          2.40750E+01 2.31956E+01 2.24178E+01 2.17276E+01 2.11027E+01
          2.05210E+01 1.99658E+01 1.94040E+01 1.87594E+01 1.78434E+01
          1.63065E+01 1.50949E+01 1.32914E+01 1.09118E+01 6.16660E+00
          4.05684E+00 1.68559E+00 1.23732E+00 7.29436E-01 6.32695E-01
          5.42409E-01 5.31374E-01                                     4.001E+01
 1.50E+08 4.34582E+01 3.79372E+01 3.39494E+01 3.24537E+01 3.21150E+01
          3.04902E+01 2.90294E+01 2.77088E+01 2.65226E+01 2.54633E+01
          2.45253E+01 2.37027E+01 2.29878E+01 2.23694E+01 2.18281E+01
          2.13456E+01 2.09096E+01 2.04909E+01 2.00179E+01 1.93003E+01
          1.79847E+01 1.68929E+01 1.52068E+01 1.28677E+01 7.75919E+00
          5.22794E+00 2.05018E+00 1.46866E+00 8.11167E-01 6.83217E-01
          5.50957E-01 5.31373E-01                                     4.130E+01
 2.00E+08 4.28971E+01 3.77052E+01 3.39494E+01 3.25284E+01 3.21888E+01
          3.06102E+01 2.91799E+01 2.78837E+01 2.67189E+01 2.56812E+01
          2.47684E+01 2.39751E+01 2.32941E+01 2.27172E+01 2.22335E+01
          2.18291E+01 2.14841E+01 2.11513E+01 2.07547E+01 2.01616E+01
          1.90663E+01 1.81016E+01 1.65232E+01 1.42576E+01 9.04121E+00
          6.20160E+00 2.37244E+00 1.67667E+00 8.84471E-01 7.29808E-01
          5.61252E-01 5.30522E-01                                     4.207E+01
 3.00E+08 4.16278E+01 3.72008E+01 3.39640E+01 3.26619E+01 3.22587E+01
          3.07229E+01 2.93277E+01 2.80629E+01 2.69266E+01 2.59159E+01
          2.50306E+01 2.42687E+01 2.36273E+01 2.31006E+01 2.26779E+01
          2.23472E+01 2.20944E+01 2.18812E+01 2.16428E+01 2.12573E+01
          2.04458E+01 1.96611E+01 1.82698E+01 1.61541E+01 1.09487E+01
          7.81984E+00 2.94634E+00 2.04526E+00 1.01449E+00 8.12022E-01
          5.84426E-01 5.29897E-01                                     4.297E+01
 4.00E+08 4.05427E+01 3.67631E+01 3.39617E+01 3.27508E+01 3.22826E+01
          3.07657E+01 2.93876E+01 2.81399E+01 2.70211E+01 2.60283E+01
          2.51618E+01 2.44205E+01 2.38021E+01 2.33023E+01 2.29120E+01
          2.26218E+01 2.24214E+01 2.22784E+01 2.21375E+01 2.18921E+01
          2.12861E+01 2.06364E+01 1.94044E+01 1.74414E+01 1.23585E+01
          9.08775E+00 3.45106E+00 2.37401E+00 1.12927E+00 8.85733E-01
          6.06368E-01 5.29819E-01                                     4.347E+01
 5.00E+08 3.97587E+01 3.64495E+01 3.39634E+01 3.28169E+01 3.22986E+01
          3.07902E+01 2.94192E+01 2.81806E+01 2.70734E+01 2.60946E+01
          2.52439E+01 2.45193E+01 2.39167E+01 2.34318E+01 2.30594E+01
          2.27934E+01 2.26263E+01 2.25295E+01 2.24553E+01 2.23153E+01
          2.18596E+01 2.13028E+01 2.02078E+01 1.84131E+01 1.34854E+01
          1.01019E+01 3.90267E+00 2.67948E+00 1.23535E+00 9.50934E-01
          6.28940E-01 5.29310E-01                                     4.381E+01
 6.00E+08 3.92220E+01 3.62361E+01 3.39673E+01 3.28657E+01 3.23139E+01
          3.08129E+01 2.94488E+01 2.82179E+01 2.71181E+01 2.61465E+01
          2.53028E+01 2.45859E+01 2.39940E+01 2.35236E+01 2.31677E+01
          2.29196E+01 2.27742E+01 2.27076E+01 2.26793E+01 2.26089E+01
          2.22761E+01 2.18166E+01 2.08375E+01 1.91410E+01 1.43566E+01
          1.10041E+01 4.37229E+00 2.95558E+00 1.33301E+00 1.01451E+00
          6.49426E-01 5.29967E-01                                     4.406E+01
 8.00E+08 3.85327E+01 3.59570E+01 3.39638E+01 3.29190E+01 3.23244E+01
          3.08344E+01 2.94805E+01 2.82593E+01 2.71688E+01 2.62077E+01
          2.53761E+01 2.46723E+01 2.40929E+01 2.36352E+01 2.32958E+01
          2.30719E+01 2.29596E+01 2.29367E+01 2.29689E+01 2.29963E+01
          2.28314E+01 2.24998E+01 2.17088E+01 2.02419E+01 1.57657E+01
          1.23936E+01 5.29189E+00 3.46741E+00 1.51373E+00 1.12674E+00
          6.90376E-01 5.31007E-01                                     4.439E+01
 1.00E+09 3.80996E+01 3.57863E+01 3.39693E+01 3.29614E+01 3.23403E+01
          3.08567E+01 2.95079E+01 2.82919E+01 2.72066E+01 2.62509E+01
          2.54242E+01 2.47266E+01 2.41558E+01 2.37102E+01 2.33846E+01
          2.31748E+01 2.30794E+01 2.30815E+01 2.31526E+01 2.32403E+01
          2.31882E+01 2.29603E+01 2.23264E+01 2.10222E+01 1.67702E+01
          1.35103E+01 6.10097E+00 3.92279E+00 1.67788E+00 1.23252E+00
          7.26169E-01 5.29073E-01                                     4.462E+01
 1.50E+09 3.74386E+01 3.55226E+01 3.39723E+01 3.30194E+01 3.23568E+01
          3.08821E+01 2.95412E+01 2.83325E+01 2.72549E+01 2.63075E+01
          2.54909E+01 2.48037E+01 2.42432E+01 2.38080E+01 2.34970E+01
          2.33089E+01 2.32430E+01 2.32823E+01 2.34039E+01 2.35787E+01
          2.37018E+01 2.36283E+01 2.32332E+01 2.22420E+01 1.85695E+01
          1.55070E+01 7.73987E+00 4.99672E+00 2.04632E+00 1.46541E+00
          8.10814E-01 5.29527E-01                                     4.496E+01
 2.00E+09 3.71173E+01 3.54071E+01 3.39911E+01 3.30566E+01 3.23619E+01
          3.08830E+01 2.95442E+01 2.83413E+01 2.72713E+01 2.63323E+01
          2.55231E+01 2.48423E+01 2.42900E+01 2.38624E+01 2.35534E+01
          2.33599E+01 2.32935E+01 2.33646E+01 2.35664E+01 2.38234E+01
          2.39940E+01 2.39672E+01 2.37118E+01 2.29749E+01 1.97593E+01
          1.68160E+01 9.03597E+00 6.06424E+00 2.37256E+00 1.67254E+00
          8.85070E-01 5.29438E-01                                     4.515E+01
 3.00E+09 3.67012E+01 3.52318E+01 3.39776E+01 3.30765E+01 3.23565E+01
          3.08830E+01 2.95490E+01 2.83507E+01 2.72854E+01 2.63507E+01
          2.55463E+01 2.48711E+01 2.43248E+01 2.39048E+01 2.36049E+01
          2.34229E+01 2.33720E+01 2.34646E+01 2.36981E+01 2.40027E+01
          2.42633E+01 2.43279E+01 2.42517E+01 2.37973E+01 2.12162E+01
          1.86099E+01 1.09888E+01 7.73835E+00 2.94478E+00 2.03952E+00
          1.01306E+00 5.27351E-01                                     4.534E+01
 4.00E+09 3.64981E+01 3.51545E+01 3.39846E+01 3.31005E+01 3.23669E+01
          3.08954E+01 2.95636E+01 2.83669E+01 2.73031E+01 2.63708E+01
          2.55684E+01 2.48956E+01 2.43526E+01 2.39365E+01 2.36410E+01
          2.34654E+01 2.34228E+01 2.35267E+01 2.37763E+01 2.41052E+01
          2.44122E+01 2.45252E+01 2.45471E+01 2.42606E+01 2.21313E+01
          1.97993E+01 1.24398E+01 9.06014E+00 3.44845E+00 2.36976E+00
          1.13084E+00 5.35091E-01                                     4.547E+01
 5.00E+09 3.63066E+01 3.50611E+01 3.39605E+01 3.30985E+01 3.23642E+01
          3.09029E+01 2.95737E+01 2.83769E+01 2.73111E+01 2.63760E+01
          2.55720E+01 2.48990E+01 2.43572E+01 2.39459E+01 2.36620E+01
          2.35042E+01 2.34774E+01 2.35740E+01 2.37855E+01 2.41036E+01
          2.44829E+01 2.46524E+01 2.47378E+01 2.45458E+01 2.27543E+01
          2.06411E+01 1.35586E+01 1.01136E+01 3.95627E+00 2.67111E+00
          1.24181E+00 5.35404E-01                                     4.553E+01
 6.00E+09 3.62237E+01 3.50324E+01 3.39678E+01 3.31127E+01 3.23719E+01
          3.09108E+01 2.95826E+01 2.83865E+01 2.73217E+01 2.63880E+01
          2.55864E+01 2.49154E+01 2.43741E+01 2.39614E+01 2.36773E+01
          2.35230E+01 2.35025E+01 2.36054E+01 2.38216E+01 2.41451E+01
          2.45495E+01 2.47506E+01 2.48739E+01 2.47226E+01 2.31853E+01
          2.13732E+01 1.44683E+01 1.09652E+01 4.58452E+00 2.96994E+00
          1.32838E+00 5.35113E-01                                     4.559E+01
 8.00E+09 3.60967E+01 3.49787E+01 3.39635E+01 3.31186E+01 3.23702E+01
          3.09107E+01 2.95837E+01 2.83886E+01 2.73248E+01 2.63923E+01
          2.55915E+01 2.49222E+01 2.43824E+01 2.39719E+01 2.36900E+01
          2.35386E+01 2.35221E+01 2.36307E+01 2.38555E+01 2.41936E+01
          2.46255E+01 2.48517E+01 2.50256E+01 2.49773E+01 2.38122E+01
          2.22647E+01 1.58695E+01 1.24056E+01 5.64824E+00 3.64529E+00
          1.52013E+00 5.35040E-01                                     4.566E+01
 1.00E+10 3.60195E+01 3.49469E+01 3.39623E+01 3.31241E+01 3.23717E+01
          3.09137E+01 2.95873E+01 2.83926E+01 2.73288E+01 2.63963E+01
          2.55957E+01 2.49265E+01 2.43872E+01 2.39772E+01 2.36966E+01
          2.35470E+01 2.35329E+01 2.36456E+01 2.38756E+01 2.42221E+01
          2.46715E+01 2.49152E+01 2.51207E+01 2.51334E+01 2.42130E+01
          2.28676E+01 1.69120E+01 1.35257E+01 6.51302E+00 4.29796E+00
          1.67420E+00 5.19361E-01                                     4.570E+01
