 PENELOPE (v. 2005)  Material data file ...............
 Material:  GLASS, PLATE                                               
 Mass density = 2.40000000E+00 g/cm**3
 Number of elements in the molecule =  4
   atomic number =  8,  atoms/molecule = 1.07443000E+01
   atomic number = 11,  atoms/molecule = 1.56834000E+00
   atomic number = 14,  atoms/molecule = 4.48006000E+00
   atomic number = 20,  atoms/molecule = 1.00000000E+00
 Mean excitation energy = 1.45400000E+02 eV
 Number of oscillators = 14 (E/P inelastic model)
   1  2.14885800E+01  0.00000000E+00  1.07025734E+01   0  30
   2  4.29772000E+01  1.40000000E+01  3.86658525E+01   8   3
   3  2.74886000E+01  2.42182723E+01  6.56297589E+01   0   2
   4  9.41004000E+00  3.10000000E+01  8.35133153E+01  11   3
   5  2.00000000E+00  4.40000000E+01  1.18407085E+02  20   5
   6  3.13668000E+00  6.30000000E+01  1.69527319E+02  11   2
   7  2.68803600E+01  9.93333333E+01  2.67341736E+02  14   3
   8  8.96012000E+00  1.49000000E+02  4.00907515E+02  14   2
   9  6.00000000E+00  3.48000000E+02  9.36253625E+02  20   3
  10  2.00000000E+00  4.38000000E+02  1.17839293E+03  20   2
  11  2.14886000E+01  5.43000000E+02  1.46090678E+03   8   1
  12  3.13668000E+00  1.07200000E+03  2.88409780E+03  11   1
  13  8.96012000E+00  1.83900000E+03  4.94762662E+03  14   1
  14  2.00000000E+00  4.03800000E+03  1.08637868E+04  20   1
 Number of shells = 13 (Compton IA model)
   1  2.14885800E+01  0.00000000E+00  1.24227602E+00   0  30
   2  4.29772000E+01  1.40000000E+01  3.50000000E-01   8  30
   3  3.88986400E+01  2.68759432E+01  4.51305197E-01   0  30
   4  3.13668000E+00  6.30000000E+01  3.90000000E-01  11   2
   5  2.68803600E+01  9.93333333E+01  1.49000000E-01  14  30
   6  8.96012000E+00  1.49000000E+02  2.75000000E-01  14   2
   7  4.00000000E+00  3.47000000E+02  9.02000000E-02  20   4
   8  2.00000000E+00  3.50000000E+02  9.02000000E-02  20   3
   9  2.00000000E+00  4.38000000E+02  1.74000000E-01  20   2
  10  2.14886000E+01  5.43000000E+02  1.13000000E-01   8   1
  11  3.13668000E+00  1.07200000E+03  8.15000000E-02  11   1
  12  8.96012000E+00  1.83900000E+03  6.35000000E-02  14   1
  13  2.00000000E+00  4.03800000E+03  4.40000000E-02  20   1
 *** RELAX:  Z =  8,  NO. OF SHELLS =  4,  NO. OF TRANSITIONS =   8
   1 1s1/2 2  5.43000000E+02
   2 2s1/2 2  2.40000000E+01
   3 2p1/2 2  1.40000000E+01
   4 2p3/2 2  1.40000000E+01
   1  3  0  1.90768000E-03  5.23090000E+02
   1  4  0  3.80027000E-03  5.23130000E+02
   1  2  2  1.78644000E-01  4.78820000E+02
   1  2  3  1.16224000E-01  4.93860000E+02
   1  2  4  2.30418000E-01  4.93900000E+02
   1  3  3  1.10822000E-02  5.08900000E+02
   1  3  4  2.91115000E-01  5.08940000E+02
   1  4  4  1.66809000E-01  5.08980000E+02
 *** RELAX:  Z = 11,  NO. OF SHELLS =  5,  NO. OF TRANSITIONS =  14
   1 1s1/2 2  1.07200000E+03
   2 2s1/2 2  6.30000000E+01
   3 2p1/2 2  3.10000000E+01
   4 2p3/2 4  3.10000000E+01
   5 3s1/2 1  6.00000000E+00
   1  3  0  6.68996000E-03  1.04098000E+03
   1  4  0  1.32959000E-02  1.04098000E+03
   1  2  2  8.70552000E-02  9.35040000E+02
   1  2  3  8.90021000E-02  9.63100000E+02
   1  2  4  1.75052000E-01  9.63300000E+02
   1  2  5  5.73825000E-03  9.94370000E+02
   1  3  3  1.46296000E-02  9.91160000E+02
   1  3  4  3.82369000E-01  9.91360000E+02
   1  3  5  2.69932000E-03  1.02243000E+03
   1  4  4  2.18165000E-01  9.91560000E+02
   1  4  5  5.30407000E-03  1.02263000E+03
   2 30  0  1.16019000E-04  6.44800000E+01
   2  3 30  3.34898000E-01  2.80600000E+01
   2  4 30  6.64986000E-01  2.82600000E+01
 *** RELAX:  Z = 14,  NO. OF SHELLS =  6,  NO. OF TRANSITIONS =  46
   1 1s1/2 2  1.83900000E+03
   2 2s1/2 2  1.49000000E+02
   3 2p1/2 2  1.00000000E+02
   4 2p3/2 4  9.90000000E+01
   5 3s1/2 2  8.00000000E+00
   6 3p1/2 2  8.00000000E+00
   1  3  0  1.59791000E-02  1.73939000E+03
   1  4  0  3.17052000E-02  1.73998000E+03
   1  6  0  2.72402000E-04  1.83596000E+03
   1  7  0  5.40444000E-04  1.83596000E+03
   1  2  2  7.47954000E-02  1.52540000E+03
   1  2  3  8.01214000E-02  1.56828000E+03
   1  2  4  1.56131000E-01  1.56897000E+03
   1  2  5  1.41124000E-02  1.66332000E+03
   1  2  6  1.95584000E-03  1.67040000E+03
   1  2  7  3.81585000E-03  1.67043000E+03
   1  3  3  1.39905000E-02  1.61116000E+03
   1  3  4  3.56408000E-01  1.61185000E+03
   1  3  5  6.76231000E-03  1.70620000E+03
   1  3  6  6.64732000E-04  1.71328000E+03
   1  3  7  7.97675000E-03  1.71331000E+03
   1  4  4  2.03104000E-01  1.61254000E+03
   1  4  5  1.31982000E-02  1.70689000E+03
   1  4  6  7.96407000E-03  1.71397000E+03
   1  4  7  9.16547000E-03  1.71400000E+03
   1  5  5  6.64748000E-04  1.80124000E+03
   1  5  6  1.66185000E-04  1.80832000E+03
   1  5  7  3.25975000E-04  1.80835000E+03
   1  6  6  6.39199000E-06  1.81540000E+03
   1  6  7  1.08669000E-04  1.81543000E+03
   1  7  7  6.39185000E-05  1.81546000E+03
   2  6  0  5.83271000E-06  1.55240000E+02
   2  7  0  1.07340000E-05  1.45030000E+02
   2  5  5  1.03158000E-02  1.24290000E+02
   2  5  6  5.00684000E-03  1.31370000E+02
   2  5  7  9.95440000E-03  1.31400000E+02
   2  6  6  3.23120000E-05  1.38450000E+02
   2  7  7  6.62381000E-05  1.38510000E+02
   3  7  0  1.82830000E-09  1.02150000E+02
   4  6  0  8.54246000E-10  1.00630000E+02
   4  7  0  8.43116000E-10  1.01460000E+02
   2 30  0  3.26940000E-04  1.51550000E+02
   2  3 30  3.28841000E-01  4.28800000E+01
   2  4 30  6.45440000E-01  4.35700000E+01
   3 30  0  4.72000000E-05  1.08670000E+02
   3  5 30  6.57611000E-01  9.50400000E+01
   3  6 30  3.34881000E-01  1.02120000E+02
   3  7 30  7.46220000E-03  1.02150000E+02
   4 30  0  4.42068000E-05  1.07980000E+02
   4  5 30  6.56668000E-01  9.43500000E+01
   4  6 30  1.38649000E-01  1.01430000E+02
   4  7 30  2.04639000E-01  1.01460000E+02
 *** RELAX:  Z = 20,  NO. OF SHELLS =  8,  NO. OF TRANSITIONS =  71
   1 1s1/2 2  4.03800000E+03
   2 2s1/2 2  4.38000000E+02
   3 2p1/2 2  3.50000000E+02
   4 2p3/2 4  3.47000000E+02
   5 3s1/2 2  4.40000000E+01
   6 3p1/2 2  2.50000000E+01
   7 3p3/2 4  2.50000000E+01
  10 4s1/2 2  6.00000000E+00
   1  3  0  4.87196000E-02  3.68813000E+03
   1  4  0  9.61323000E-02  3.69172000E+03
   1  6  0  5.17776000E-03  4.01276000E+03
   1  7  0  1.02489000E-02  4.01276000E+03
   1  2  2  5.63485000E-02  3.14678000E+03
   1  2  3  6.20531000E-02  3.22185000E+03
   1  2  4  1.17762000E-01  3.22569000E+03
   1  2  5  1.42824000E-02  3.52773000E+03
   1  2  6  7.23290000E-03  3.54688000E+03
   1  2  7  1.37034000E-02  3.54729000E+03
   1  2 10  1.62556000E-03  3.57544000E+03
   1  3  3  1.12223000E-02  3.29692000E+03
   1  3  4  2.76841000E-01  3.30076000E+03
   1  3  5  6.82757000E-03  3.60280000E+03
   1  3  6  2.49498000E-03  3.62195000E+03
   1  3  7  2.84282000E-02  3.62236000E+03
   1  3 10  7.63476000E-04  3.65051000E+03
   1  4  4  1.56416000E-01  3.30460000E+03
   1  4  5  1.29934000E-02  3.60664000E+03
   1  4  6  2.83839000E-02  3.62579000E+03
   1  4  7  3.25412000E-02  3.62620000E+03
   1  4 10  1.45385000E-03  3.65435000E+03
   1  5  5  8.72175000E-04  3.90868000E+03
   1  5  6  7.79616000E-04  3.92783000E+03
   1  5  7  1.47733000E-03  3.92824000E+03
   1  5 10  1.99359000E-04  3.95639000E+03
   1  6  6  1.35157000E-04  3.94698000E+03
   1  6  7  2.93344000E-03  3.94739000E+03
   1  6 10  8.76773000E-05  3.97554000E+03
   1  7  7  1.69495000E-03  3.94780000E+03
   1  7 10  1.68035000E-04  3.97595000E+03
   2  6  0  2.04061000E-04  4.15430000E+02
   2  7  0  3.06021000E-04  4.15800000E+02
   2  5  5  1.31208000E-02  3.27790000E+02
   2  5  6  2.28754000E-02  3.46940000E+02
   2  5  7  4.52192000E-02  3.47350000E+02
   2  5 10  2.68682000E-03  3.75500000E+02
   2  6  6  5.21721000E-04  3.66090000E+02
   2  6  7  2.67985000E-04  3.66500000E+02
   2  6 10  2.04550000E-03  3.94650000E+02
   2  7  7  1.23299000E-03  3.66910000E+02
   2  7 10  4.04393000E-03  3.95060000E+02
   3  5  0  1.19571000E-03  3.06430000E+02
   3  7  0  8.74676000E-07  3.27120000E+02
   3 10  0  2.53632000E-05  3.55640000E+02
   3  5  5  1.08556000E-02  2.52720000E+02
   3  5  6  1.98917000E-01  2.71870000E+02
   3  5  7  1.45844000E-02  2.72280000E+02
   3  5 10  2.13424000E-03  3.00430000E+02
   3  6  6  1.61409000E-01  2.91020000E+02
   3  6  7  5.70643000E-01  2.91430000E+02
   3  6 10  2.29240000E-02  3.19580000E+02
   3  7  7  1.58751000E-02  2.91840000E+02
   3  7 10  1.43604000E-03  3.19990000E+02
   4  5  0  1.13130000E-03  3.02690000E+02
   4  6  0  4.05972000E-07  3.23340000E+02
   4  7  0  3.98812000E-07  3.23710000E+02
   4 10  0  2.39671000E-05  3.52230000E+02
   4  5  5  1.06175000E-02  2.48880000E+02
   4  5  6  6.94101000E-03  2.68030000E+02
   4  5  7  2.03179000E-01  2.68440000E+02
   4  5 10  2.10301000E-03  2.96590000E+02
   4  6  6  2.69658000E-03  2.87180000E+02
   4  6  7  2.95034000E-01  2.87590000E+02
   4  6 10  6.70949000E-04  3.15740000E+02
   4  7  7  4.53602000E-01  2.88000000E+02
   4  7 10  2.39998000E-02  3.16150000E+02
   2 30  0  3.72745000E-04  4.34110000E+02
   2  3 30  3.11791000E-01  7.50700000E+01
   2  4 30  5.95311000E-01  7.89100000E+01
   3 30  0  8.73376000E-12  3.59040000E+02
 *** Electron scaled bremss x-section,  ZEQ = 1.10066E+01,  NDATA =  57
 1.00E+03 6.74187E+01 6.80908E+01 6.87325E+01 6.93204E+01 6.98599E+01
          7.08223E+01 7.16207E+01 7.22630E+01 7.27630E+01 7.31498E+01
          7.34637E+01 7.37182E+01 7.39251E+01 7.40967E+01 7.42561E+01
          7.44218E+01 7.45893E+01 7.47447E+01 7.48769E+01 7.50025E+01
          7.51330E+01 7.51929E+01 7.52456E+01 7.52794E+01 7.53060E+01
          7.53103E+01 7.53134E+01 7.53136E+01 7.53139E+01 7.53139E+01
          7.53141E+01 7.53142E+01                                     6.323E+01
 1.50E+03 7.94724E+01 8.01563E+01 8.07989E+01 8.13688E+01 8.18737E+01
          8.27291E+01 8.33655E+01 8.37930E+01 8.40323E+01 8.41244E+01
          8.41237E+01 8.40458E+01 8.39024E+01 8.37091E+01 8.34989E+01
          8.32998E+01 8.31086E+01 8.29106E+01 8.26972E+01 8.24917E+01
          8.23215E+01 8.22449E+01 8.21512E+01 8.20591E+01 8.19792E+01
          8.19626E+01 8.19431E+01 8.19400E+01 8.19383E+01 8.19381E+01
          8.19386E+01 8.19378E+01                                     7.171E+01
 2.00E+03 8.84090E+01 8.91595E+01 8.98441E+01 9.04132E+01 9.08802E+01
          9.15831E+01 9.19892E+01 9.21487E+01 9.20965E+01 9.18855E+01
          9.15833E+01 9.12029E+01 9.07471E+01 9.02323E+01 8.97071E+01
          8.92140E+01 8.87495E+01 8.82924E+01 8.78309E+01 8.74009E+01
          8.70257E+01 8.68423E+01 8.66453E+01 8.64761E+01 8.63164E+01
          8.62822E+01 8.62479E+01 8.62428E+01 8.62397E+01 8.62393E+01
          8.62397E+01 8.62389E+01                                     7.765E+01
 3.00E+03 1.01330E+02 1.02241E+02 1.03027E+02 1.03594E+02 1.03971E+02
          1.04317E+02 1.04206E+02 1.03802E+02 1.03167E+02 1.02364E+02
          1.01475E+02 1.00528E+02 9.95431E+01 9.85493E+01 9.75706E+01
          9.66338E+01 9.57443E+01 9.49000E+01 9.40987E+01 9.33412E+01
          9.26362E+01 9.23074E+01 9.19812E+01 9.17207E+01 9.14532E+01
          9.13872E+01 9.13345E+01 9.13277E+01 9.13225E+01 9.13218E+01
          9.13216E+01 9.13212E+01                                     8.560E+01
 4.00E+03 1.10683E+02 1.11650E+02 1.12452E+02 1.12964E+02 1.13224E+02
          1.13217E+02 1.12635E+02 1.11706E+02 1.10523E+02 1.09181E+02
          1.07793E+02 1.06389E+02 1.04980E+02 1.03590E+02 1.02241E+02
          1.00960E+02 9.97549E+01 9.86209E+01 9.75550E+01 9.65585E+01
          9.56416E+01 9.52175E+01 9.47997E+01 9.44687E+01 9.41296E+01
          9.40472E+01 9.39812E+01 9.39726E+01 9.39662E+01 9.39652E+01
          9.39646E+01 9.39646E+01                                     9.070E+01
 5.00E+03 1.18092E+02 1.18908E+02 1.19566E+02 1.19949E+02 1.20093E+02
          1.19860E+02 1.18988E+02 1.17637E+02 1.15931E+02 1.14037E+02
          1.12148E+02 1.10308E+02 1.08519E+02 1.06800E+02 1.05172E+02
          1.03659E+02 1.02250E+02 1.00901E+02 9.95820E+01 9.83516E+01
          9.72770E+01 9.67936E+01 9.63073E+01 9.59129E+01 9.55264E+01
          9.54318E+01 9.53556E+01 9.53460E+01 9.53384E+01 9.53375E+01
          9.53368E+01 9.53368E+01                                     9.426E+01
 6.00E+03 1.24056E+02 1.24821E+02 1.25406E+02 1.25676E+02 1.25675E+02
          1.25095E+02 1.23813E+02 1.22022E+02 1.19870E+02 1.17547E+02
          1.15270E+02 1.13087E+02 1.10994E+02 1.09004E+02 1.07132E+02
          1.05395E+02 1.03780E+02 1.02235E+02 1.00726E+02 9.93239E+01
          9.81065E+01 9.75631E+01 9.70199E+01 9.65826E+01 9.61569E+01
          9.60528E+01 9.59690E+01 9.59586E+01 9.59502E+01 9.59490E+01
          9.59484E+01 9.59485E+01                                     9.684E+01
 8.00E+03 1.33210E+02 1.34044E+02 1.34599E+02 1.34670E+02 1.34334E+02
          1.32862E+02 1.30583E+02 1.27923E+02 1.25047E+02 1.22111E+02
          1.19285E+02 1.16599E+02 1.14042E+02 1.11614E+02 1.09323E+02
          1.07179E+02 1.05181E+02 1.03303E+02 1.01524E+02 9.98721E+01
          9.84002E+01 9.77464E+01 9.71121E+01 9.66182E+01 9.61306E+01
          9.60131E+01 9.59188E+01 9.59065E+01 9.58973E+01 9.58961E+01
          9.58953E+01 9.58953E+01                                     1.002E+02
 1.00E+04 1.40325E+02 1.40986E+02 1.41331E+02 1.41127E+02 1.40467E+02
          1.38289E+02 1.35273E+02 1.31917E+02 1.28405E+02 1.24899E+02
          1.21579E+02 1.18461E+02 1.15522E+02 1.12748E+02 1.10147E+02
          1.07719E+02 1.05458E+02 1.03324E+02 1.01295E+02 9.94122E+01
          9.77441E+01 9.70022E+01 9.62913E+01 9.57490E+01 9.52181E+01
          9.50906E+01 9.49886E+01 9.49753E+01 9.49656E+01 9.49642E+01
          9.49633E+01 9.49631E+01                                     1.023E+02
 1.50E+04 1.52841E+02 1.53087E+02 1.52924E+02 1.52054E+02 1.50618E+02
          1.46772E+02 1.42101E+02 1.37306E+02 1.32585E+02 1.28067E+02
          1.23886E+02 1.20011E+02 1.16392E+02 1.12970E+02 1.09775E+02
          1.06802E+02 1.04036E+02 1.01424E+02 9.89362E+01 9.66301E+01
          9.45647E+01 9.36233E+01 9.27424E+01 9.21029E+01 9.14972E+01
          9.13528E+01 9.12391E+01 9.12245E+01 9.12136E+01 9.12120E+01
          9.12110E+01 9.12107E+01                                     1.046E+02
 2.00E+04 1.65228E+02 1.62926E+02 1.60512E+02 1.57913E+02 1.55215E+02
          1.49843E+02 1.44493E+02 1.39270E+02 1.34203E+02 1.29315E+02
          1.24630E+02 1.20153E+02 1.15920E+02 1.11910E+02 1.08149E+02
          1.04612E+02 1.01315E+02 9.82727E+01 9.54940E+01 9.29467E+01
          9.06757E+01 8.97342E+01 8.89970E+01 8.84951E+01 8.73424E+01
          8.68537E+01 8.69590E+01 8.70372E+01 8.69973E+01 8.69712E+01
          8.70169E+01 8.69875E+01                                     1.052E+02
 3.00E+04 1.74820E+02 1.72329E+02 1.69579E+02 1.66392E+02 1.62925E+02
          1.55790E+02 1.48561E+02 1.41580E+02 1.34943E+02 1.28715E+02
          1.22929E+02 1.17589E+02 1.12647E+02 1.08024E+02 1.03751E+02
          9.97934E+01 9.61221E+01 9.26876E+01 8.94566E+01 8.64525E+01
          8.36938E+01 8.24240E+01 8.12905E+01 8.04879E+01 7.94420E+01
          7.90894E+01 7.91188E+01 7.91603E+01 7.91258E+01 7.91080E+01
          7.91341E+01 7.91179E+01                                     1.049E+02
 4.00E+04 1.80646E+02 1.78319E+02 1.75519E+02 1.71921E+02 1.67773E+02
          1.58934E+02 1.49919E+02 1.41512E+02 1.33814E+02 1.26816E+02
          1.20470E+02 1.14715E+02 1.09431E+02 1.04474E+02 9.98857E+01
          9.56525E+01 9.17008E+01 8.79284E+01 8.42726E+01 8.08232E+01
          7.76088E+01 7.60576E+01 7.46097E+01 7.36100E+01 7.28217E+01
          7.26425E+01 7.25033E+01 7.24867E+01 7.24737E+01 7.24716E+01
          7.24710E+01 7.24710E+01                                     1.040E+02
 5.00E+04 1.87432E+02 1.83360E+02 1.79030E+02 1.74279E+02 1.69308E+02
          1.59470E+02 1.49926E+02 1.41040E+02 1.32846E+02 1.25327E+02
          1.18459E+02 1.12207E+02 1.06508E+02 1.01217E+02 9.63243E+01
          9.18071E+01 8.75858E+01 8.35931E+01 7.97627E+01 7.60546E+01
          7.24611E+01 7.07511E+01 6.91920E+01 6.81303E+01 6.72550E+01
          6.70926E+01 6.69342E+01 6.69121E+01 6.69006E+01 6.68983E+01
          6.68992E+01 6.68979E+01                                     1.029E+02
 6.00E+04 1.92798E+02 1.87154E+02 1.81460E+02 1.75708E+02 1.70049E+02
          1.59437E+02 1.49538E+02 1.40318E+02 1.31754E+02 1.23822E+02
          1.16536E+02 1.09898E+02 1.03877E+02 9.83372E+01 9.32092E+01
          8.84602E+01 8.40147E+01 7.98452E+01 7.58936E+01 7.20051E+01
          6.80944E+01 6.62220E+01 6.45694E+01 6.34912E+01 6.25509E+01
          6.23747E+01 6.22070E+01 6.21847E+01 6.21721E+01 6.21695E+01
          6.21711E+01 6.21688E+01                                     1.019E+02
 8.00E+04 1.98939E+02 1.92073E+02 1.85215E+02 1.78403E+02 1.71798E+02
          1.59616E+02 1.48492E+02 1.38332E+02 1.29050E+02 1.20544E+02
          1.12774E+02 1.05757E+02 9.93917E+01 9.35349E+01 8.80868E+01
          8.30296E+01 7.82873E+01 7.38191E+01 6.95623E+01 6.53317E+01
          6.10245E+01 5.89567E+01 5.71667E+01 5.60258E+01 5.49701E+01
          5.47497E+01 5.45691E+01 5.45478E+01 5.45323E+01 5.45293E+01
          5.45295E+01 5.45275E+01                                     1.003E+02
 1.00E+05 2.02820E+02 1.95091E+02 1.87412E+02 1.79855E+02 1.72585E+02
          1.59273E+02 1.47248E+02 1.36363E+02 1.26502E+02 1.17557E+02
          1.09455E+02 1.02204E+02 9.56544E+01 8.96310E+01 8.39934E+01
          7.87059E+01 7.37251E+01 6.89995E+01 6.44840E+01 6.00219E+01
          5.55311E+01 5.33739E+01 5.14638E+01 5.02027E+01 4.90505E+01
          4.87882E+01 4.85943E+01 4.85735E+01 4.85543E+01 4.85512E+01
          4.85498E+01 4.85484E+01                                     9.897E+01
 1.50E+05 2.09099E+02 1.99766E+02 1.90541E+02 1.81546E+02 1.72944E+02
          1.57307E+02 1.43519E+02 1.31464E+02 1.20846E+02 1.11437E+02
          1.03041E+02 9.55028E+01 8.86347E+01 8.22497E+01 7.62319E+01
          7.05531E+01 6.52453E+01 6.02123E+01 5.53971E+01 5.06794E+01
          4.59709E+01 4.36619E+01 4.14981E+01 3.99519E+01 3.85954E+01
          3.82864E+01 3.80472E+01 3.80190E+01 3.79959E+01 3.79927E+01
          3.79903E+01 3.79896E+01                                     9.668E+01
 2.00E+05 2.14227E+02 2.02739E+02 1.91665E+02 1.81344E+02 1.71820E+02
          1.54947E+02 1.40420E+02 1.27811E+02 1.16755E+02 1.06974E+02
          9.83029E+01 9.05450E+01 8.35037E+01 7.69933E+01 7.08341E+01
          6.49508E+01 5.94246E+01 5.42551E+01 4.93663E+01 4.45916E+01
          3.97988E+01 3.74124E+01 3.50821E+01 3.33343E+01 3.18516E+01
          3.15089E+01 3.12325E+01 3.12002E+01 3.11737E+01 3.11696E+01
          3.11676E+01 3.11672E+01                                     9.540E+01
 3.00E+05 2.21544E+02 2.07359E+02 1.93958E+02 1.81945E+02 1.71176E+02
          1.52368E+02 1.36511E+02 1.23031E+02 1.11527E+02 1.01495E+02
          9.25761E+01 8.45651E+01 7.72643E+01 7.05069E+01 6.41355E+01
          5.80725E+01 5.23721E+01 4.71133E+01 4.21788E+01 3.73523E+01
          3.24839E+01 3.00387E+01 2.76224E+01 2.57611E+01 2.40819E+01
          2.36796E+01 2.33567E+01 2.33186E+01 2.32867E+01 2.32823E+01
          2.32794E+01 2.32793E+01                                     9.518E+01
 4.00E+05 2.27650E+02 2.11331E+02 1.96192E+02 1.83093E+02 1.71646E+02
          1.51776E+02 1.35240E+02 1.21191E+02 1.09267E+02 9.89480E+01
          8.97801E+01 8.15245E+01 7.39822E+01 6.70010E+01 6.04800E+01
          5.43563E+01 4.86197E+01 4.32781E+01 3.82705E+01 3.33868E+01
          2.85084E+01 2.60571E+01 2.36244E+01 2.17154E+01 1.98859E+01
          1.94427E+01 1.90892E+01 1.90424E+01 1.90083E+01 1.90045E+01
          1.90003E+01 1.89999E+01                                     9.672E+01
 5.00E+05 2.33306E+02 2.15323E+02 1.98843E+02 1.84948E+02 1.73010E+02
          1.52264E+02 1.35191E+02 1.20748E+02 1.08514E+02 9.79479E+01
          8.85439E+01 8.00551E+01 7.23217E+01 6.52044E+01 5.85749E+01
          5.23494E+01 4.65098E+01 4.10580E+01 3.59862E+01 3.10872E+01
          2.61864E+01 2.37088E+01 2.12336E+01 1.92646E+01 1.73227E+01
          1.68410E+01 1.64590E+01 1.64095E+01 1.63726E+01 1.63679E+01
          1.63642E+01 1.63625E+01                                     9.913E+01
 6.00E+05 2.38373E+02 2.19114E+02 2.01624E+02 1.87153E+02 1.74862E+02
          1.53385E+02 1.35833E+02 1.21089E+02 1.08607E+02 9.78246E+01
          8.82207E+01 7.95452E+01 7.16493E+01 6.43996E+01 5.76571E+01
          5.13280E+01 4.53886E+01 3.98324E+01 3.46614E+01 2.97264E+01
          2.47862E+01 2.22774E+01 1.97453E+01 1.77019E+01 1.56546E+01
          1.51408E+01 1.47315E+01 1.46792E+01 1.46394E+01 1.46343E+01
          1.46303E+01 1.46281E+01                                     1.020E+02
 8.00E+05 2.46851E+02 2.25943E+02 2.07148E+02 1.91925E+02 1.79129E+02
          1.56442E+02 1.38015E+02 1.22819E+02 1.10036E+02 9.89834E+01
          8.91010E+01 8.01509E+01 7.20027E+01 6.45269E+01 5.75717E+01
          5.10340E+01 4.48868E+01 3.91162E+01 3.37100E+01 2.86044E+01
          2.35221E+01 2.09204E+01 1.82510E+01 1.60466E+01 1.37790E+01
          1.31994E+01 1.27348E+01 1.26768E+01 1.26303E+01 1.26244E+01
          1.26194E+01 1.26176E+01                                     1.083E+02
 1.00E+06 2.53816E+02 2.31623E+02 2.11840E+02 1.96119E+02 1.83060E+02
          1.59740E+02 1.40885E+02 1.25400E+02 1.12371E+02 1.01079E+02
          9.09745E+01 8.18218E+01 7.34811E+01 6.58156E+01 5.86805E+01
          5.19720E+01 4.56473E+01 3.96681E+01 3.40008E+01 2.86156E+01
          2.33281E+01 2.06050E+01 1.77749E+01 1.53951E+01 1.28870E+01
          1.22364E+01 1.17136E+01 1.16479E+01 1.15955E+01 1.15889E+01
          1.15833E+01 1.15821E+01                                     1.146E+02
 1.50E+06 2.66613E+02 2.42404E+02 2.21124E+02 2.04748E+02 1.91439E+02
          1.67463E+02 1.48359E+02 1.32471E+02 1.19006E+02 1.07274E+02
          9.67769E+01 8.72734E+01 7.85984E+01 7.05969E+01 6.31158E+01
          5.60401E+01 4.93119E+01 4.28657E+01 3.66340E+01 3.05473E+01
          2.45530E+01 2.14549E+01 1.81402E+01 1.52616E+01 1.21310E+01
          1.13023E+01 1.06361E+01 1.05526E+01 1.04858E+01 1.04777E+01
          1.04709E+01 1.04702E+01                                     1.293E+02
 2.00E+06 2.74965E+02 2.49939E+02 2.28096E+02 2.11562E+02 1.98260E+02
          1.74065E+02 1.54873E+02 1.38810E+02 1.25169E+02 1.13252E+02
          1.02552E+02 9.28292E+01 8.39289E+01 7.56945E+01 6.79564E+01
          6.05877E+01 5.35298E+01 4.67137E+01 4.00483E+01 3.33956E+01
          2.66214E+01 2.30983E+01 1.92349E+01 1.58093E+01 1.20586E+01
          1.10635E+01 1.02585E+01 1.01585E+01 1.00769E+01 1.00668E+01
          1.00575E+01 1.00553E+01                                     1.417E+02
 3.00E+06 2.85279E+02 2.59192E+02 2.36752E+02 2.20384E+02 2.07646E+02
          1.84368E+02 1.65583E+02 1.49574E+02 1.35752E+02 1.23529E+02
          1.12470E+02 1.02381E+02 9.31419E+01 8.46093E+01 7.65950E+01
          6.89441E+01 6.15586E+01 5.43079E+01 4.70254E+01 3.94706E+01
          3.12521E+01 2.67271E+01 2.17987E+01 1.73762E+01 1.24318E+01
          1.10707E+01 9.98549E+00 9.85436E+00 9.74935E+00 9.73377E+00
          9.72499E+00 9.70072E+00                                     1.614E+02
 4.00E+06 2.89667E+02 2.63753E+02 2.41742E+02 2.26216E+02 2.14455E+02
          1.92502E+02 1.74112E+02 1.58042E+02 1.43900E+02 1.31298E+02
          1.19961E+02 1.09717E+02 1.00437E+02 9.19324E+01 8.39160E+01
          7.61651E+01 6.85794E+01 6.10263E+01 5.32995E+01 4.50352E+01
          3.56275E+01 3.02468E+01 2.43625E+01 1.91065E+01 1.29989E+01
          1.12369E+01 9.88552E+00 9.72663E+00 9.58998E+00 9.56787E+00
          9.55937E+00 9.51471E+00                                     1.763E+02
 5.00E+06 2.93688E+02 2.67286E+02 2.45130E+02 2.30007E+02 2.18879E+02
          1.97763E+02 1.79813E+02 1.64025E+02 1.50068E+02 1.37591E+02
          1.26344E+02 1.16136E+02 1.06801E+02 9.81600E+01 8.99986E+01
          8.21364E+01 7.44517E+01 6.67689E+01 5.87921E+01 4.99683E+01
          3.96073E+01 3.35943E+01 2.68236E+01 2.07620E+01 1.35992E+01
          1.15016E+01 9.84948E+00 9.64750E+00 9.48042E+00 9.45784E+00
          9.44202E+00 9.38498E+00                                     1.879E+02
 6.00E+06 2.95449E+02 2.68985E+02 2.47048E+02 2.32586E+02 2.22231E+02
          2.01987E+02 1.84505E+02 1.68934E+02 1.55046E+02 1.42578E+02
          1.31349E+02 1.21182E+02 1.11902E+02 1.03315E+02 9.51841E+01
          8.73092E+01 7.95610E+01 7.17502E+01 6.35458E+01 5.43119E+01
          4.32259E+01 3.66651E+01 2.91587E+01 2.23678E+01 1.42258E+01
          1.17830E+01 9.83646E+00 9.59270E+00 9.39091E+00 9.36473E+00
          9.34761E+00 9.28090E+00                                     1.972E+02
 8.00E+06 2.98636E+02 2.71578E+02 2.49595E+02 2.35952E+02 2.26681E+02
          2.07596E+02 1.90975E+02 1.76035E+02 1.62613E+02 1.50478E+02
          1.39482E+02 1.29470E+02 1.20289E+02 1.11760E+02 1.03660E+02
          9.57921E+01 8.80120E+01 8.00991E+01 7.16575E+01 6.19057E+01
          4.97615E+01 4.23217E+01 3.35373E+01 2.53449E+01 1.54722E+01
          1.24383E+01 9.88255E+00 9.53902E+00 9.26580E+00 9.23564E+00
          9.21265E+00 9.14234E+00                                     2.118E+02
 1.00E+07 3.00332E+02 2.72948E+02 2.51017E+02 2.38020E+02 2.29568E+02
          2.11388E+02 1.95470E+02 1.81078E+02 1.68086E+02 1.56288E+02
          1.45556E+02 1.35751E+02 1.26731E+02 1.18331E+02 1.10336E+02
          1.02548E+02 9.48166E+01 8.68995E+01 7.83553E+01 6.82958E+01
          5.54284E+01 4.73395E+01 3.75574E+01 2.81453E+01 1.66977E+01
          1.31168E+01 9.97350E+00 9.52932E+00 9.17826E+00 9.14270E+00
          9.11610E+00 9.04431E+00                                     2.228E+02
 1.50E+07 3.01990E+02 2.74373E+02 2.52689E+02 2.40704E+02 2.33502E+02
          2.16932E+02 2.02272E+02 1.88928E+02 1.76807E+02 1.65746E+02
          1.55641E+02 1.46378E+02 1.37833E+02 1.29853E+02 1.22232E+02
          1.14774E+02 1.07316E+02 9.95915E+01 9.10923E+01 8.07634E+01
          6.69282E+01 5.78240E+01 4.63187E+01 3.46327E+01 1.96152E+01
          1.48082E+01 1.02917E+01 9.60287E+00 9.04371E+00 8.99012E+00
          8.96019E+00 8.89865E+00                                     2.415E+02
 2.00E+07 3.02518E+02 2.74836E+02 2.53340E+02 2.41942E+02 2.35463E+02
          2.19927E+02 2.06096E+02 1.93477E+02 1.81994E+02 1.71505E+02
          1.61921E+02 1.53138E+02 1.45041E+02 1.37483E+02 1.30259E+02
          1.23169E+02 1.16050E+02 1.08626E+02 1.00357E+02 9.00998E+01
          7.59207E+01 6.62831E+01 5.37081E+01 4.03971E+01 2.23240E+01
          1.64367E+01 1.06647E+01 9.74726E+00 8.97743E+00 8.90131E+00
          8.86960E+00 8.82008E+00                                     2.538E+02
 3.00E+07 3.02725E+02 2.74911E+02 2.53597E+02 2.42883E+02 2.37267E+02
          2.22963E+02 2.10156E+02 1.98472E+02 1.87848E+02 1.78168E+02
          1.69356E+02 1.61319E+02 1.53951E+02 1.47111E+02 1.40589E+02
          1.34182E+02 1.27732E+02 1.20961E+02 1.13314E+02 1.03560E+02
          8.94580E+01 7.94120E+01 6.56764E+01 5.02227E+01 2.71984E+01
          1.94605E+01 1.14443E+01 1.01128E+01 8.93676E+00 8.80876E+00
          8.76536E+00 8.73250E+00                                     2.694E+02
 4.00E+07 3.02504E+02 2.74719E+02 2.53588E+02 2.43303E+02 2.38193E+02
          2.24614E+02 2.12415E+02 2.01285E+02 1.91171E+02 1.81974E+02
          1.73628E+02 1.66056E+02 1.59173E+02 1.52859E+02 1.46931E+02
          1.41198E+02 1.35469E+02 1.29388E+02 1.22335E+02 1.13106E+02
          9.93766E+01 8.93088E+01 7.51240E+01 5.84181E+01 3.16769E+01
          2.22449E+01 1.22136E+01 1.05009E+01 8.95703E+00 8.78953E+00
          8.71132E+00 8.68678E+00                                     2.794E+02
 5.00E+07 3.02155E+02 2.74524E+02 2.53602E+02 2.43608E+02 2.38804E+02
          2.25683E+02 2.13866E+02 2.03092E+02 1.93310E+02 1.84438E+02
          1.76421E+02 1.69193E+02 1.62678E+02 1.56773E+02 1.51311E+02
          1.46112E+02 1.40979E+02 1.35529E+02 1.29105E+02 1.20457E+02
          1.07140E+02 9.71471E+01 8.28396E+01 6.54545E+01 3.58987E+01
          2.47742E+01 1.29606E+01 1.09169E+01 9.01011E+00 8.78611E+00
          8.67961E+00 8.65902E+00                                     2.865E+02
 6.00E+07 3.01538E+02 2.74170E+02 2.53498E+02 2.43734E+02 2.39135E+02
          2.26349E+02 2.14815E+02 2.04305E+02 1.94776E+02 1.86159E+02
          1.78408E+02 1.71464E+02 1.65257E+02 1.59685E+02 1.54586E+02
          1.49784E+02 1.45095E+02 1.40151E+02 1.34292E+02 1.26213E+02
          1.13401E+02 1.03602E+02 8.93307E+01 7.15239E+01 3.97936E+01
          2.71901E+01 1.36812E+01 1.13159E+01 9.07598E+00 8.79887E+00
          8.66175E+00 8.63861E+00                                     2.918E+02
 8.00E+07 3.00544E+02 2.73695E+02 2.53457E+02 2.43987E+02 2.39604E+02
          2.27230E+02 2.16054E+02 2.05898E+02 1.96720E+02 1.88465E+02
          1.81092E+02 1.74552E+02 1.68782E+02 1.63686E+02 1.59108E+02
          1.54886E+02 1.50875E+02 1.46759E+02 1.41908E+02 1.34915E+02
          1.23113E+02 1.13754E+02 9.97766E+01 8.16072E+01 4.67488E+01
          3.17401E+01 1.50587E+01 1.21091E+01 9.23358E+00 8.84586E+00
          8.63716E+00 8.61198E+00                                     2.995E+02
 1.00E+08 2.99887E+02 2.73485E+02 2.53607E+02 2.44344E+02 2.40090E+02
          2.27983E+02 2.17035E+02 2.07098E+02 1.98135E+02 1.90096E+02
          1.82953E+02 1.76660E+02 1.71165E+02 1.66383E+02 1.62175E+02
          1.58393E+02 1.54904E+02 1.51404E+02 1.47279E+02 1.41160E+02
          1.30386E+02 1.21552E+02 1.07972E+02 8.97355E+01 5.28728E+01
          3.59837E+01 1.63651E+01 1.28773E+01 9.41171E+00 8.91843E+00
          8.62866E+00 8.59947E+00                                     3.051E+02
 1.50E+08 2.98260E+02 2.72864E+02 2.53752E+02 2.44869E+02 2.40793E+02
          2.29098E+02 2.18482E+02 2.08844E+02 2.00158E+02 1.92397E+02
          1.85550E+02 1.79591E+02 1.74485E+02 1.70177E+02 1.66566E+02
          1.63535E+02 1.60948E+02 1.58461E+02 1.55497E+02 1.50977E+02
