 PENELOPE (v. 2005)  Material data file ...............
 Material:  IODINE                                                     
 Mass density = 4.93000000E+00 g/cm**3
 Number of elements in the molecule =  1
   atomic number = 53,  atoms/molecule = 1.00000000E+00
 Mean excitation energy = 4.91000000E+02 eV
 Number of oscillators = 14 (E/P inelastic model)
   1  4.00000000E+00  0.00000000E+00  1.13593999E+01   0  30
   2  1.00000000E+00  1.00000000E+01  1.72159890E+01  53  30
   3  2.00000000E+00  1.40000000E+01  2.41202235E+01  53  30
   4  1.00000000E+01  5.00000000E+01  8.35697698E+01  53  30
   5  6.00000000E+00  1.23000000E+02  2.04105181E+02  53  30
   6  2.00000000E+00  1.86000000E+02  3.08450934E+02  53  30
   7  1.00000000E+01  6.24400000E+02  1.03524811E+03  53   8
   8  4.00000000E+00  8.75000000E+02  1.45074767E+03  53   7
   9  2.00000000E+00  9.31000000E+02  1.54357791E+03  53   6
  10  2.00000000E+00  1.07200000E+03  1.77734893E+03  53   5
  11  4.00000000E+00  4.55700000E+03  7.55534517E+03  53   4
  12  2.00000000E+00  4.85200000E+03  8.04444137E+03  53   3
  13  2.00000000E+00  5.18800000E+03  8.60151692E+03  53   2
  14  2.00000000E+00  3.31700000E+04  5.49946483E+04  53   1
 Number of shells = 14 (Compton IA model)
   1  4.00000000E+00  0.00000000E+00  1.17044478E+00   0  30
   2  3.00000000E+00  1.26666667E+01  7.71333333E-01  53  30
   3  1.00000000E+01  5.00000000E+01  1.60200000E-01  53  30
   4  6.00000000E+00  1.23000000E+02  1.88000000E-01  53  30
   5  2.00000000E+00  1.86000000E+02  2.85000000E-01  53  30
   6  6.00000000E+00  6.20000000E+02  5.21000000E-02  53   9
   7  4.00000000E+00  6.31000000E+02  5.15000000E-02  53   8
   8  4.00000000E+00  8.75000000E+02  7.74000000E-02  53   7
   9  2.00000000E+00  9.31000000E+02  7.48000000E-02  53   6
  10  2.00000000E+00  1.07200000E+03  1.26000000E-01  53   5
  11  4.00000000E+00  4.55700000E+03  2.85000000E-02  53   4
  12  2.00000000E+00  4.85200000E+03  2.72000000E-02  53   3
  13  2.00000000E+00  5.18800000E+03  5.47000000E-02  53   2
  14  2.00000000E+00  3.31700000E+04  1.53000000E-02  53   1
 *** RELAX:  Z = 53,  NO. OF SHELLS = 17,  NO. OF TRANSITIONS = 525
   1 1s1/2 2  3.31700000E+04
   2 2s1/2 2  5.18800000E+03
   3 2p1/2 2  4.85200000E+03
   4 2p3/2 4  4.55700000E+03
   5 3s1/2 2  1.07200000E+03
   6 3p1/2 2  9.31000000E+02
   7 3p3/2 4  8.75000000E+02
   8 3d3/2 4  6.31000000E+02
   9 3d5/2 6  6.20000000E+02
  10 4s1/2 2  1.86000000E+02
  11 4p1/2 2  1.23000000E+02
  12 4p3/2 4  1.23000000E+02
  13 4d3/2 4  5.00000000E+01
  14 4d5/2 6  5.00000000E+01
  17 5s1/2 2  1.40000000E+01
  18 5p1/2 2  1.00000000E+01
  19 5p3/2 3  1.00000000E+01
   1  3  0  2.54309000E-01  2.83175000E+04
   1  4  0  4.72118000E-01  2.86123000E+04
   1  6  0  4.39088000E-02  3.22397000E+04
   1  7  0  8.51517000E-02  3.22950000E+04
   1  8  0  4.12249000E-04  3.25388000E+04
   1  9  0  5.65058000E-04  3.25501000E+04
   1 11  0  9.15607000E-03  3.30417000E+04
   1 12  0  1.79119000E-02  3.30417000E+04
   1 13  0  7.32237000E-05  3.31182000E+04
   1 14  0  1.00070000E-04  3.31200000E+04
   1 18  0  7.32127000E-04  3.31532000E+04
   1 19  0  1.37130000E-03  3.31544000E+04
   1  2  2  8.91673000E-03  2.28402000E+04
   1  2  3  1.06418000E-02  2.31446000E+04
   1  2  4  1.30507000E-02  2.34476000E+04
   1  2  5  3.17941000E-03  2.69467000E+04
   1  2  6  2.02890000E-03  2.70749000E+04
   1  2  7  2.51372000E-03  2.71323000E+04
   1  2  8  1.68000000E-04  2.73606000E+04
   1  2  9  1.83814000E-04  2.73728000E+04
   1  2 10  6.84137000E-04  2.78111000E+04
   1  2 11  4.10625000E-04  2.78566000E+04
   1  2 12  5.05507000E-04  2.78679000E+04
   1  2 13  3.01428000E-05  2.79421000E+04
   1  2 14  3.28600000E-05  2.79438000E+04
   1  3  3  1.33390000E-03  2.34490000E+04
   1  3  4  2.82368000E-02  2.37520000E+04
   1  3  5  1.57310000E-03  2.72511000E+04
   1  3  6  4.55341000E-04  2.73793000E+04
   1  3  7  4.53287000E-03  2.74367000E+04
   1  3  8  2.03331000E-04  2.76650000E+04
   1  3  9  6.81651000E-04  2.76772000E+04
   1  3 10  3.25647000E-04  2.81155000E+04
   1  3 11  9.04264000E-05  2.81610000E+04
   1  3 12  8.81532000E-04  2.81723000E+04
   1  3 13  3.60726000E-05  2.82465000E+04
   1  3 14  1.20073000E-04  2.82482000E+04
   1  4  4  1.41721000E-02  2.40550000E+04
   1  4  5  1.89061000E-03  2.75541000E+04
   1  4  6  4.42382000E-03  2.76823000E+04
   1  4  7  4.67357000E-03  2.77397000E+04
   1  4  8  8.13596000E-04  2.79680000E+04
   1  4  9  7.49837000E-04  2.79802000E+04
   1  4 10  3.89866000E-04  2.84185000E+04
   1  4 11  8.64481000E-04  2.84640000E+04
   1  4 12  9.14422000E-04  2.84753000E+04
   1  4 13  1.44039000E-04  2.85495000E+04
   1  4 14  1.32428000E-04  2.85512000E+04
   1  5  5  2.79178000E-04  3.10532000E+04
   1  5  6  3.02645000E-04  3.11814000E+04
   1  5  7  3.67138000E-04  3.12388000E+04
   1  5  8  2.32233000E-05  3.14671000E+04
   1  5  9  2.44589000E-05  3.14793000E+04
   1  5 10  1.19826000E-04  3.19176000E+04
   1  5 11  6.12717000E-05  3.19631000E+04
   1  5 12  7.38715000E-05  3.19744000E+04
   1  5 13  4.20010000E-06  3.20486000E+04
   1  5 14  4.44713000E-06  3.20503000E+04
   1  6  6  3.73070000E-05  3.13096000E+04
   1  6  7  7.22172000E-04  3.13670000E+04
   1  6  8  2.49538000E-05  3.15953000E+04
   1  6  9  8.32602000E-05  3.16075000E+04
   1  6 10  6.27548000E-05  3.20458000E+04
   1  6 11  1.48233000E-05  3.20913000E+04
   1  6 12  1.40835000E-04  3.21026000E+04
   1  6 13  4.44717000E-06  3.21768000E+04
   1  6 14  1.48233000E-05  3.21785000E+04
   1  7  7  3.86652000E-04  3.14244000E+04
   1  7  8  1.05990000E-04  3.16527000E+04
   1  7  9  9.53676000E-05  3.16649000E+04
   1  7 10  7.58480000E-05  3.21031000E+04
   1  7 11  1.41567000E-04  3.21487000E+04
   1  7 12  1.51453000E-04  3.21600000E+04
   1  7 13  1.87766000E-05  3.22341000E+04
   1  7 14  1.67993000E-05  3.22359000E+04
   1  8  9  1.21717000E-05  3.18932000E+04
   1  8 10  4.44716000E-06  3.23315000E+04
   1  8 11  4.44716000E-06  3.23770000E+04
   1  8 12  1.87255000E-05  3.23883000E+04
   1  8 14  2.10657000E-06  3.24643000E+04
   1  9  9  2.86227000E-06  3.19054000E+04
   1  9 10  4.77035000E-06  3.23436000E+04
   1  9 11  1.50265000E-05  3.23892000E+04
   1  9 12  1.71738000E-05  3.24005000E+04
   1  9 13  2.14665000E-06  3.24746000E+04
   1  9 14  9.54089000E-07  3.24764000E+04
   1 10 10  1.24217000E-05  3.27819000E+04
   1 10 11  1.24217000E-05  3.28274000E+04
   1 10 12  1.48109000E-05  3.28388000E+04
   1 10 13  7.16603000E-07  3.29129000E+04
   1 10 14  9.55497000E-07  3.29147000E+04
   1 11 11  1.37022000E-06  3.28729000E+04
   1 11 12  2.55791000E-05  3.28843000E+04
   1 11 13  6.85131000E-07  3.29584000E+04
   1 11 14  2.51218000E-06  3.29602000E+04
   1 12 12  1.38134000E-05  3.28956000E+04
   1 12 13  3.22323000E-06  3.29698000E+04
   1 12 14  2.99304000E-06  3.29715000E+04
   1 13 14  4.94134000E-07  3.30457000E+04
   2  3  0  1.99879000E-05  3.04400000E+02
   2  4  0  3.45078000E-04  6.07400000E+02
   2  6  0  1.31549000E-02  4.25753000E+03
   2  7  0  2.08889000E-02  4.31349000E+03
   2  8  0  1.88269000E-04  4.55643000E+03
   2  9  0  2.81209000E-04  4.56906000E+03
   2 11  0  2.77369000E-03  5.06567000E+03
   2 12  0  4.51118000E-03  5.06567000E+03
   2 13  0  2.20399000E-05  5.13590000E+03
   2 14  0  3.34348000E-05  5.13770000E+03
   2 18  0  2.41689000E-04  5.15113000E+03
   2 19  0  3.77128000E-04  5.15227000E+03
   2  3 10  5.64269000E-02  1.13360000E+02
   2  3 11  4.07635000E-02  1.58870000E+02
   2  3 12  5.25610000E-02  1.70190000E+02
   2  3 13  1.29922000E-02  2.44360000E+02
   2  3 14  2.08579000E-02  2.46140000E+02
   2  4 10  7.43152000E-02  4.16360000E+02
   2  4 11  3.29765000E-02  4.61870000E+02
   2  4 12  6.23732000E-02  4.73190000E+02
   2  4 13  5.93997000E-02  5.47360000E+02
   2  4 14  7.62633000E-02  5.49140000E+02
   2  5  5  1.33311000E-02  3.05110000E+03
   2  5  6  2.65331000E-02  3.17930000E+03
   2  5  7  4.91513000E-02  3.23669000E+03
   2  5  8  3.94319000E-02  3.46504000E+03
   2  5  9  5.58364000E-02  3.47719000E+03
   2  5 10  4.90313000E-03  3.91546000E+03
   2  5 11  5.26610000E-03  3.96097000E+03
   2  5 12  9.67521000E-03  3.97229000E+03
   2  5 13  6.06316000E-03  4.04646000E+03
   2  5 14  8.53470000E-03  4.04824000E+03
   2  6  6  1.48177000E-04  3.30750000E+03
   2  6  7  1.05168000E-03  3.36489000E+03
   2  6  8  1.12451000E-03  3.59324000E+03
   2  6  9  1.45656000E-02  3.60539000E+03
   2  6 10  3.91878000E-03  4.04366000E+03
   2  6 11  3.04348000E-05  4.08917000E+03
   2  6 12  1.95419000E-04  4.10049000E+03
   2  6 13  1.77001000E-04  4.17466000E+03
   2  6 14  1.48728000E-03  4.17644000E+03
   2  7  7  1.13975000E-03  3.42228000E+03
   2  7  8  1.02699000E-02  3.65063000E+03
   2  7  9  6.99365000E-03  3.66278000E+03
   2  7 10  7.25887000E-03  4.10105000E+03
   2  7 11  1.95424000E-04  4.14656000E+03
   2  7 12  3.42794000E-04  4.15788000E+03
   2  7 13  9.13857000E-04  4.23205000E+03
   2  7 14  6.51971000E-04  4.23383000E+03
   2  8  8  2.23147000E-03  3.87898000E+03
   2  8  9  8.04566000E-02  3.89113000E+03
   2  8 10  5.52494000E-03  4.32940000E+03
   2  8 11  2.89938000E-04  4.37491000E+03
   2  8 12  2.03917000E-03  4.38623000E+03
   2  8 13  6.80006000E-04  4.46040000E+03
   2  8 14  9.05944000E-03  4.46218000E+03
   2  9  9  2.26910000E-02  3.90328000E+03
   2  9 10  7.86852000E-03  4.34155000E+03
   2  9 11  2.63828000E-03  4.38706000E+03
   2  9 12  1.45850000E-03  4.39838000E+03
   2  9 13  8.97605000E-03  4.47255000E+03
   2  9 14  5.34479000E-03  4.47433000E+03
   2 10 10  4.28507000E-04  4.77982000E+03
   2 10 11  7.79317000E-04  4.82533000E+03
   2 10 12  1.43049000E-03  4.83665000E+03
   2 10 13  8.46599000E-04  4.91082000E+03
   2 10 14  1.19657000E-03  4.91260000E+03
   2 11 11  1.60184000E-06  4.87084000E+03
   2 11 12  3.68419000E-05  4.88216000E+03
   2 11 13  3.84437000E-05  4.95633000E+03
   2 11 14  2.77917000E-04  4.95811000E+03
   2 12 12  2.52665000E-05  4.89348000E+03
   2 12 13  1.89493000E-04  4.96765000E+03
   2 12 14  1.39746000E-04  4.96943000E+03
   2 13 13  4.79689000E-05  5.04182000E+03
   2 13 14  1.05927000E-03  5.04360000E+03
   2 14 14  3.26309000E-04  5.04538000E+03
   3  4  0  5.67999000E-08  3.03000000E+02
   3  5  0  3.92489000E-03  3.78019000E+03
   3  7  0  5.50079000E-05  3.97750000E+03
   3  8  0  7.02248000E-02  4.22076000E+03
   3 10  0  5.40509000E-04  4.66608000E+03
   3 12  0  6.31929000E-06  4.72420000E+03
   3 13  0  1.00360000E-02  4.80098000E+03
   3 17  0  6.10559000E-05  4.83649000E+03
   3 19  0  5.28549000E-07  4.84787000E+03
   3  4 10  1.14294000E-02  1.11960000E+02
   3  4 11  5.04681000E-02  1.57470000E+02
   3  4 12  1.76294000E-02  1.68790000E+02
   3  4 13  6.42816000E-02  2.42960000E+02
   3  4 14  2.38704000E-02  2.44740000E+02
   3  5  5  1.02794000E-03  2.74670000E+03
   3  5  6  2.48945000E-02  2.87490000E+03
   3  5  7  2.43523000E-03  2.93229000E+03
   3  5  8  1.83807000E-03  3.16064000E+03
   3  5  9  3.52278000E-03  3.17279000E+03
   3  5 10  3.51358000E-04  3.61106000E+03
   3  5 11  3.40613000E-03  3.65657000E+03
   3  5 12  4.26120000E-04  3.66789000E+03
   3  5 13  2.08388000E-04  3.74206000E+03
   3  5 14  3.41084000E-04  3.74384000E+03
   3  6  6  2.45287000E-02  3.00310000E+03
   3  6  7  7.69105000E-02  3.06049000E+03
   3  6  8  4.18445000E-02  3.28884000E+03
   3  6  9  7.14703000E-02  3.30099000E+03
   3  6 10  5.46847000E-03  3.73926000E+03
   3  6 11  8.35310000E-03  3.78477000E+03
   3  6 12  1.48648000E-02  3.79609000E+03
   3  6 13  6.41213000E-03  3.87026000E+03
   3  6 14  1.09464000E-02  3.87204000E+03
   3  7  7  2.02405000E-03  3.11788000E+03
   3  7  8  5.02422000E-02  3.34623000E+03
   3  7  9  6.76265000E-03  3.35838000E+03
   3  7 10  4.59773000E-04  3.79665000E+03
   3  7 11  1.09056000E-02  3.84216000E+03
   3  7 12  6.60668000E-04  3.85348000E+03
   3  7 13  6.62249000E-03  3.92765000E+03
   3  7 14  8.34471000E-04  3.92943000E+03
   3  8  8  4.58917000E-02  3.57458000E+03
   3  8  9  1.96844000E-01  3.58673000E+03
   3  8 10  4.09295000E-04  4.02500000E+03
   3  8 11  5.94594000E-03  4.07051000E+03
   3  8 12  9.17743000E-03  4.08183000E+03
   3  8 13  1.20861000E-02  4.15600000E+03
   3  8 14  2.76909000E-02  4.15778000E+03
   3  9  9  9.37876000E-03  3.59888000E+03
   3  9 10  6.49444000E-04  4.03715000E+03
   3  9 11  9.04942000E-03  4.08266000E+03
   3  9 12  1.13067000E-03  4.09398000E+03
   3  9 13  2.20603000E-02  4.16815000E+03
   3  9 14  2.40632000E-03  4.16993000E+03
   3 10 10  3.15393000E-05  4.47542000E+03
   3 10 11  8.17978000E-04  4.52093000E+03
   3 10 12  8.74965000E-05  4.53225000E+03
   3 10 13  4.88349000E-05  4.60642000E+03
   3 10 14  7.01987000E-05  4.60820000E+03
   3 11 11  6.40191000E-04  4.56644000E+03
   3 11 12  1.98201000E-03  4.57776000E+03
   3 11 13  8.43026000E-04  4.65193000E+03
   3 11 14  1.31112000E-03  4.65371000E+03
   3 12 12  5.19761000E-05  4.58908000E+03
   3 12 13  1.16949000E-03  4.66325000E+03
   3 12 14  1.37106000E-04  4.66503000E+03
   3 13 13  7.72474000E-04  4.73742000E+03
   3 13 14  3.13948000E-03  4.73920000E+03
   3 14 14  1.49357000E-04  4.74098000E+03
   4  5  0  7.05937000E-03  3.48506000E+03
   4  6  0  3.82208000E-05  3.62730000E+03
   4  7  0  3.56368000E-05  3.68320000E+03
   4  8  0  6.98697000E-03  3.92609000E+03
   4  9  0  6.19427000E-02  3.93770000E+03
   4 10  0  5.96297000E-04  4.37062000E+03
   4 11  0  3.11799000E-06  4.42530000E+03
   4 12  0  2.99079000E-06  4.42990000E+03
   4 13  0  9.74006000E-04  4.50758000E+03
   4 14  0  8.67596000E-03  4.50758000E+03
   4 17  0  7.92526000E-05  4.53349000E+03
   4 18  0  2.70649000E-07  4.54373000E+03
   4 19  0  2.49149000E-07  4.54487000E+03
   4  5  5  1.35310000E-03  2.44370000E+03
   4  5  6  9.72469000E-04  2.57190000E+03
   4  5  7  2.88831000E-02  2.62929000E+03
   4  5  8  2.87269000E-03  2.85764000E+03
   4  5  9  3.08991000E-03  2.86979000E+03
   4  5 10  4.63882000E-04  3.30806000E+03
   4  5 11  1.60377000E-04  3.35357000E+03
   4  5 12  3.94770000E-03  3.36489000E+03
   4  5 13  2.42613000E-04  3.43906000E+03
   4  5 14  2.41591000E-04  3.44084000E+03
   4  6  6  3.21783000E-04  2.70010000E+03
   4  6  7  4.81238000E-02  2.75749000E+03
   4  6  8  3.27369000E-03  2.98584000E+03
   4  6  9  2.92012000E-02  2.99799000E+03
   4  6 10  1.79665000E-04  3.43626000E+03
   4  6 11  1.06581000E-04  3.48177000E+03
   4  6 12  6.81035000E-03  3.49309000E+03
   4  6 13  4.67954000E-04  3.56726000E+03
   4  6 14  3.63807000E-03  3.56904000E+03
   4  7  7  6.77243000E-02  2.81488000E+03
   4  7  8  6.91858000E-02  3.04323000E+03
   4  7  9  1.04721000E-01  3.05538000E+03
   4  7 10  6.27961000E-03  3.49365000E+03
   4  7 11  9.17734000E-03  3.53916000E+03
   4  7 12  2.26488000E-02  3.55048000E+03
   4  7 13  1.02358000E-02  3.62465000E+03
   4  7 14  1.52771000E-02  3.62643000E+03
   4  8  8  1.01182000E-02  3.27158000E+03
   4  8  9  1.94016000E-01  3.28373000E+03
   4  8 10  5.81636000E-04  3.72200000E+03
   4  8 11  6.20206000E-04  3.76751000E+03
   4  8 12  9.15953000E-03  3.77883000E+03
   4  8 13  2.66959000E-03  3.85300000E+03
   4  8 14  2.20602000E-02  3.85478000E+03
   4  9  9  1.31777000E-01  3.29588000E+03
   4  9 10  6.66903000E-04  3.73415000E+03
   4  9 11  5.19620000E-03  3.77966000E+03
   4  9 12  1.54901000E-02  3.79098000E+03
   4  9 13  2.58880000E-02  3.86515000E+03
   4  9 14  3.33216000E-02  3.86693000E+03
   4 10 10  4.38749000E-05  4.17242000E+03
   4 10 11  3.37502000E-05  4.21793000E+03
   4 10 12  9.54016000E-04  4.22925000E+03
   4 10 13  5.73734000E-05  4.30342000E+03
   4 10 14  6.18766000E-05  4.30520000E+03
   4 11 11  7.64967000E-06  4.26344000E+03
   4 11 12  1.22101000E-03  4.27476000E+03
   4 11 13  8.22317000E-05  4.34893000E+03
   4 11 14  6.26306000E-04  4.35071000E+03
   4 12 12  1.69339000E-03  4.28608000E+03
   4 12 13  1.25370000E-03  4.36025000E+03
   4 12 14  2.06291000E-03  4.36203000E+03
   4 13 13  1.68437000E-04  4.43442000E+03
   4 13 14  2.97019000E-03  4.43620000E+03
   4 14 14  2.16663000E-03  4.43798000E+03
   5  6  0  1.18601000E-05  1.28200000E+02
   5  7  0  7.47920000E-05  1.85590000E+02
   5 11  0  1.97547000E-04  9.09870000E+02
   5 12  0  2.70957000E-04  9.21190000E+02
   5 18  0  1.88593000E-05  1.04463000E+03
   5 19  0  2.53822000E-05  1.04577000E+03
   5  7 13  5.59498000E-02  1.25550000E+02
   5  7 14  8.17873000E-02  1.27330000E+02
   5  8 10  2.97374000E-02  2.22900000E+02
   5  8 11  6.21784000E-03  2.68410000E+02
   5  8 12  4.84196000E-03  2.79730000E+02
   5  8 13  7.57530000E-03  3.53900000E+02
   5  8 14  9.23990000E-03  3.55680000E+02
   5  9 10  4.34890000E-02  2.35050000E+02
   5  9 11  1.57592000E-03  2.80560000E+02
   5  9 12  1.22044000E-02  2.91880000E+02
   5  9 13  9.74457000E-03  3.66050000E+02
   5  9 14  1.53719000E-02  3.67830000E+02
   5 10 10  8.91742000E-03  6.73320000E+02
   5 10 11  1.42686000E-02  7.18830000E+02
   5 10 12  2.62932000E-02  7.30150000E+02
   5 10 13  2.50743000E-02  8.04320000E+02
   5 10 14  3.65247000E-02  8.06100000E+02
   5 11 11  8.08363000E-04  7.64340000E+02
   5 11 12  1.96665000E-03  7.75660000E+02
   5 11 13  1.13927000E-03  8.49830000E+02
   5 11 14  4.03279000E-04  8.51610000E+02
   5 12 12  2.52973000E-03  7.86980000E+02
   5 12 13  1.03586000E-03  8.61150000E+02
   5 12 14  2.93661000E-03  8.62930000E+02
   5 13 13  3.09033000E-04  9.35320000E+02
   5 13 14  1.04405000E-03  9.37100000E+02
   5 14 14  7.18936000E-04  9.38880000E+02
   6  8  0  4.15773000E-04  2.85740000E+02
   6 10  0  2.76166000E-04  7.36160000E+02
   6 13  0  9.85329000E-04  8.67160000E+02
   6 17  0  3.97036000E-05  9.06190000E+02
   6  8 11  1.27274000E-01  1.40210000E+02
   6  8 12  1.87741000E-01  1.51530000E+02
   6  8 13  5.08484000E-02  2.25700000E+02
   6  8 14  5.39554000E-02  2.27480000E+02
   6  9 10  2.15085000E-02  1.06850000E+02
   6  9 11  1.55248000E-01  1.52360000E+02
   6  9 12  1.62976000E-02  1.63680000E+02
   6  9 13  3.48616000E-03  2.37850000E+02
   6  9 14  6.74609000E-03  2.39630000E+02
   6 10 10  7.22799000E-04  5.45120000E+02
   6 10 11  1.02704000E-02  5.90630000E+02
   6 10 12  1.67678000E-03  6.01950000E+02
   6 10 13  3.68727000E-04  6.76120000E+02
   6 10 14  1.04761000E-03  6.77900000E+02
   6 11 11  7.20080000E-03  6.36140000E+02
   6 11 12  2.25110000E-02  6.47460000E+02
   6 11 13  1.87645000E-02  7.21630000E+02
   6 11 14  3.12219000E-02  7.23410000E+02
   6 12 12  6.40000000E-04  6.58780000E+02
   6 12 13  1.99098000E-03  7.32950000E+02
   6 12 14  1.43155000E-03  7.34730000E+02
   6 13 13  6.48047000E-04  8.07120000E+02
   6 13 14  1.58030000E-03  8.08900000E+02
   6 14 14  1.98305000E-04  8.10680000E+02
   7  8  0  2.30088000E-05  2.28350000E+02
   7  9  0  2.47498000E-04  2.40500000E+02
   7 10  0  3.48651000E-04  6.78770000E+02
   7 13  0  1.23532000E-04  8.09770000E+02
   7 14  0  1.01966000E-03  8.11550000E+02
   7 17  0  4.96183000E-05  8.48800000E+02
   7  8 13  1.28571000E-02  1.68310000E+02
   7  8 14  9.29526000E-03  1.70090000E+02
   7  9 12  2.42638000E-01  1.06290000E+02
   7  9 13  4.93172000E-02  1.80460000E+02
   7  9 14  8.31954000E-02  1.82240000E+02
   7 10 10  8.22802000E-04  4.87730000E+02
   7 10 11  1.20087000E-03  5.33240000E+02
   7 10 12  1.73790000E-02  5.44560000E+02
   7 10 13  9.92989000E-04  6.18730000E+02
   7 10 14  1.08966000E-03  6.20510000E+02
   7 11 11  1.94470000E-04  5.78750000E+02
   7 11 12  1.91102000E-02  5.90070000E+02
   7 11 13  5.24337000E-04  6.64240000E+02
   7 11 14  2.94110000E-03  6.66020000E+02
   7 12 12  2.45950000E-02  6.01390000E+02
   7 12 13  2.99649000E-02  6.75560000E+02
   7 12 14  4.07859000E-02  6.77340000E+02
   7 13 13  1.67204000E-04  7.49730000E+02
   7 13 14  1.82249000E-03  7.51510000E+02
   7 14 14  9.36502000E-04  7.53290000E+02
   8 11  0  1.54270000E-03  4.95930000E+02
   8 12  0  2.46300000E-04  5.07250000E+02
   8 18  0  1.28520000E-04  6.30690000E+02
   8 19  0  1.96650000E-05  6.31830000E+02
   8 10 10  6.84787000E-05  2.59380000E+02
   8 10 11  6.38803000E-03  3.04890000E+02
   8 10 12  5.33157000E-03  3.16210000E+02
   8 10 13  1.15812000E-01  3.90380000E+02
   8 10 14  1.68894000E-02  3.92160000E+02
   8 11 11  1.80983000E-03  3.50400000E+02
   8 11 12  1.79904000E-02  3.61720000E+02
   8 11 13  9.12801000E-02  4.35890000E+02
   8 11 14  8.04146000E-03  4.37670000E+02
   8 12 12  7.05347000E-03  3.73040000E+02
   8 12 13  2.01890000E-01  4.47210000E+02
   8 12 14  7.83106000E-03  4.48990000E+02
   8 13 13  1.49466000E-01  5.21380000E+02
   8 13 14  3.07351000E-01  5.23160000E+02
   8 14 14  5.06749000E-03  5.24940000E+02
   9 12  0  1.66508000E-03  4.95100000E+02
   9 19  0  1.32809000E-04  6.19680000E+02
   9 10 10  1.75311000E-04  2.47230000E+02
   9 10 11  2.95120000E-03  2.92740000E+02
   9 10 12  9.90049000E-03  3.04060000E+02
   9 10 13  1.25452000E-02  3.78230000E+02
   9 10 14  1.23305000E-01  3.80010000E+02
   9 11 12  1.78970000E-02  3.49570000E+02
   9 11 13  1.40733000E-03  4.23740000E+02
   9 11 14  1.13251000E-01  4.25520000E+02
   9 12 12  1.32276000E-02  3.60890000E+02
   9 12 13  1.04265000E-02  4.35060000E+02
   9 12 14  1.87009000E-01  4.36840000E+02
   9 13 13  2.07946000E-03  5.09230000E+02
   9 13 14  2.13718000E-01  5.11010000E+02
   9 14 14  2.47234000E-01  5.12790000E+02
   1  2 30  1.87526000E-04  2.80021000E+04
   1  3 30  1.38111000E-04  2.83065000E+04
   1  4 30  2.24090000E-04  2.86095000E+04
   1  5 30  3.06364000E-05  3.21086000E+04
   1  6 30  2.37196000E-05  3.22368000E+04
   1  7 30  3.85428000E-05  3.22942000E+04
   1  8 30  2.80874000E-06  3.25225000E+04
   1  9 30  3.81621000E-06  3.25347000E+04
   1 10 30  6.21055000E-06  3.29730000E+04
   1 11 30  4.33926000E-06  3.30185000E+04
   1 12 30  7.13723000E-06  3.30298000E+04
   1 13 30  4.94142000E-07  3.31040000E+04
   1 14 30  7.41216000E-07  3.31057000E+04
   1 30 30  9.88285000E-07  3.31640000E+04
   2  3 30  1.64374000E-02  3.04400000E+02
   2  4 30  1.93306000E-02  6.07400000E+02
   2  5 30  2.11279000E-03  4.10650000E+03
   2  6 30  5.63040000E-04  4.23470000E+03
   2  7 30  1.05564000E-03  4.29209000E+03
   2  8 30  9.77949000E-04  4.52044000E+03
   2  9 30  1.46967000E-03  4.53259000E+03
   2 10 30  3.30792000E-04  4.97086000E+03
   2 11 30  1.11323000E-04  5.01637000E+03
   2 12 30  2.03712000E-04  5.02769000E+03
   2 13 30  1.35253000E-04  5.10186000E+03
   2 14 30  2.01788000E-04  5.10364000E+03
   2 30 30  2.90029000E-05  5.16190000E+03
   3  4 30  7.74068000E-03  3.03000000E+02
   3  5 30  3.95274000E-04  3.80210000E+03
   3  6 30  2.97048000E-03  3.93030000E+03
   3  7 30  1.11392000E-03  3.98769000E+03
   3  8 30  1.44377000E-03  4.21604000E+03
   3  9 30  9.98950000E-04  4.22819000E+03
   3 10 30  9.05502000E-05  4.66646000E+03
   3 11 30  4.08341000E-04  4.71197000E+03
   3 12 30  2.04320000E-04  4.72329000E+03
   3 13 30  1.96331000E-04  4.79746000E+03
   3 14 30  1.41263000E-04  4.79924000E+03
   3 30 30  3.28559000E-05  4.85750000E+03
   4  5 30  4.27358000E-04  3.49910000E+03
   4  6 30  6.37485000E-04  3.62730000E+03
   4  7 30  3.85943000E-03  3.68469000E+03
   4  8 30  9.44005000E-04  3.91304000E+03
   4  9 30  1.96925000E-03  3.92519000E+03
   4 10 30  9.90029000E-05  4.36346000E+03
   4 11 30  1.13789000E-04  4.40897000E+03
   4 12 30  5.37267000E-04  4.42029000E+03
   4 13 30  1.32558000E-04  4.49446000E+03
   4 14 30  2.76555000E-04  4.49624000E+03
   4 30 30  4.04498000E-05  4.55450000E+03
   5  6 30  2.76529000E-01  1.28200000E+02
   5  7 30  2.97395000E-01  1.85590000E+02
   5  8 30  3.49802000E-03  4.13940000E+02
   5  9 30  4.92063000E-03  4.26090000E+02
   5 10 30  5.03699000E-03  8.64360000E+02
   5 11 30  1.52359000E-03  9.09870000E+02
   5 12 30  2.75532000E-03  9.21190000E+02
   5 13 30  2.31247000E-03  9.95360000E+02
   5 14 30  3.39489000E-03  9.97140000E+02
   5 30 30  3.30151000E-04  1.05540000E+03
   6  7 30  8.92680000E-02  5.73900000E+01
   6  8 30  1.64792000E-01  2.85740000E+02
   6  9 30  1.20466000E-02  2.97890000E+02
   6 10 30  8.36163000E-04  7.36160000E+02
   6 11 30  3.98399000E-03  7.81670000E+02
   6 12 30  1.59998000E-03  7.92990000E+02
   6 13 30  1.21254000E-03  8.67160000E+02
   6 14 30  1.00875000E-03  8.68940000E+02
   6 30 30  1.56172000E-04  9.27200000E+02
   7  8 30  1.65508000E-01  2.28350000E+02
   7  9 30  2.81182000E-01  2.40500000E+02
   7 10 30  1.18734000E-03  6.78770000E+02
   7 11 30  1.17546000E-03  7.24280000E+02
   7 12 30  6.39366000E-03  7.35600000E+02
   7 13 30  1.26667000E-03  8.09770000E+02
   7 14 30  1.47255000E-03  8.11550000E+02
   7 30 30  1.72549000E-04  8.69810000E+02
   8  9 30  1.36660000E-02  1.21500000E+01
   8 10 30  6.60322000E-04  4.50420000E+02
   8 11 30  1.65823000E-03  4.95930000E+02
   8 12 30  2.23542000E-03  5.07250000E+02
   8 13 30  3.54426000E-02  5.81420000E+02
   8 14 30  2.01041000E-03  5.83200000E+02
   8 30 30  1.18696000E-04  6.41460000E+02
   9 10 30  6.81786000E-04  4.38270000E+02
   9 11 30  1.20289000E-03  4.83780000E+02
   9 12 30  3.19471000E-03  4.95100000E+02
   9 13 30  1.48044000E-03  5.69270000E+02
   9 14 30  3.63436000E-02  5.71050000E+02
   9 30 30  1.71966000E-04  6.29310000E+02
 *** Electron scaled bremss x-section,  ZEQ = 5.30000E+01,  NDATA =  57
 1.00E+03 9.97868E-01 1.01816E+00 1.03853E+00 1.05903E+00 1.07969E+00
          1.12152E+00 1.16392E+00 1.20686E+00 1.25034E+00 1.29442E+00
          1.33931E+00 1.38505E+00 1.43178E+00 1.47982E+00 1.52994E+00
          1.58217E+00 1.63410E+00 1.68013E+00 1.71487E+00 1.74033E+00
          1.76019E+00 1.76952E+00 1.78339E+00 1.79794E+00 1.80558E+00
          1.80711E+00 1.80971E+00 1.80982E+00 1.80914E+00 1.80904E+00
          1.80902E+00 1.81006E+00                                     1.236E+00
 1.50E+03 1.36547E+00 1.38771E+00 1.41013E+00 1.43284E+00 1.45594E+00
          1.50333E+00 1.55229E+00 1.60280E+00 1.65479E+00 1.70816E+00
          1.76274E+00 1.81833E+00 1.87450E+00 1.93077E+00 1.98641E+00
          2.04044E+00 2.09156E+00 2.13816E+00 2.17855E+00 2.21244E+00
          2.23730E+00 2.24320E+00 2.24235E+00 2.23983E+00 2.26523E+00
          2.28207E+00 2.27754E+00 2.27377E+00 2.27276E+00 2.27310E+00
          2.27182E+00 2.27585E+00                                     1.608E+00
 2.00E+03 1.68958E+00 1.71474E+00 1.74001E+00 1.76552E+00 1.79135E+00
          1.84421E+00 1.89854E+00 1.95428E+00 2.01134E+00 2.06953E+00
          2.12863E+00 2.18836E+00 2.24824E+00 2.30763E+00 2.36566E+00
          2.42123E+00 2.47291E+00 2.51893E+00 2.55770E+00 2.58962E+00
          2.61328E+00 2.61924E+00 2.61931E+00 2.61841E+00 2.64580E+00
          2.66255E+00 2.65594E+00 2.65203E+00 2.65197E+00 2.65258E+00
          2.65100E+00 2.65410E+00                                     1.924E+00
 3.00E+03 2.22974E+00 2.26429E+00 2.29856E+00 2.33234E+00 2.36578E+00
          2.43208E+00 2.49715E+00 2.56066E+00 2.62236E+00 2.68215E+00
          2.74001E+00 2.79580E+00 2.84953E+00 2.90143E+00 2.95262E+00
          3.00372E+00 3.05331E+00 3.09856E+00 3.13656E+00 3.16721E+00
          3.19214E+00 3.20356E+00 3.21501E+00 3.22420E+00 3.23336E+00
          3.23515E+00 3.23565E+00 3.23609E+00 3.23752E+00 3.23790E+00
          3.23774E+00 3.23610E+00                                     2.436E+00
 4.00E+03 2.67275E+00 2.71817E+00 2.76252E+00 2.80495E+00 2.84565E+00
          2.92280E+00 2.99353E+00 3.05782E+00 3.11619E+00 3.17020E+00
          3.22203E+00 3.27212E+00 3.32050E+00 3.36718E+00 3.41280E+00
          3.45761E+00 3.50030E+00 3.53857E+00 3.57051E+00 3.59788E+00
          3.62280E+00 3.63461E+00 3.64758E+00 3.65869E+00 3.66781E+00
          3.66942E+00 3.66680E+00 3.66748E+00 3.67161E+00 3.67256E+00
          3.67241E+00 3.66725E+00                                     2.840E+00
 5.00E+03 3.05068E+00 3.10539E+00 3.15824E+00 3.20779E+00 3.25427E+00
          3.33942E+00 3.41313E+00 3.47567E+00 3.52840E+00 3.57439E+00
          3.61791E+00 3.65991E+00 3.70052E+00 3.73977E+00 3.77815E+00
          3.81582E+00 3.85156E+00 3.88312E+00 3.90889E+00 3.93165E+00
          3.95501E+00 3.96745E+00 3.98149E+00 3.99346E+00 4.00253E+00
          4.00383E+00 3.99926E+00 4.00012E+00 4.00592E+00 4.00725E+00
          4.00698E+00 3.99965E+00                                     3.169E+00
 6.00E+03 3.38080E+00 3.44286E+00 3.50235E+00 3.55730E+00 3.60796E+00
          3.69823E+00 3.77259E+00 3.83160E+00 3.87739E+00 3.91446E+00
          3.94883E+00 3.98197E+00 4.01405E+00 4.04521E+00 4.07583E+00
          4.10609E+00 4.13481E+00 4.15978E+00 4.17961E+00 4.19781E+00
          4.21906E+00 4.23154E+00 4.24584E+00 4.25794E+00 4.26674E+00
          4.26783E+00 4.26232E+00 4.26326E+00 4.26979E+00 4.27128E+00
          4.27077E+00 4.26296E+00                                     3.443E+00
 8.00E+03 3.94028E+00 4.01132E+00 4.07867E+00 4.13942E+00 4.19398E+00
          4.28712E+00 4.35758E+00 4.40649E+00 4.43722E+00 4.45633E+00
          4.47246E+00 4.48777E+00 4.50260E+00 4.51731E+00 4.53235E+00
          4.54802E+00 4.56338E+00 4.57633E+00 4.58575E+00 4.59579E+00
          4.61199E+00 4.62309E+00 4.63568E+00 4.64600E+00 4.65375E+00
          4.65471E+00 4.64980E+00 4.65062E+00 4.65637E+00 4.65770E+00
          4.65734E+00 4.65057E+00                                     3.876E+00
 1.00E+04 4.40169E+00 4.47582E+00 4.54544E+00 4.60701E+00 4.66107E+00
          4.75004E+00 4.81204E+00 4.84865E+00 4.86415E+00 4.86641E+00
          4.86552E+00 4.86414E+00 4.86274E+00 4.86197E+00 4.86242E+00
          4.86465E+00 4.86794E+00 4.87039E+00 4.87105E+00 4.87400E+00
          4.88460E+00 4.89312E+00 4.90215E+00 4.90899E+00 4.91520E+00
          4.91625E+00 4.91379E+00 4.91427E+00 4.91757E+00 4.91832E+00
          4.91811E+00 4.91419E+00                                     4.202E+00
 1.50E+04 5.27775E+00 5.36358E+00 5.43923E+00 5.49697E+00 5.53885E+00
          5.58812E+00 5.60142E+00 5.59561E+00 5.57666E+00 5.55023E+00
