 PENELOPE (v. 2005)  Material data file ...............
 Material: LaBr3                                                       
 Mass density = 5.06000000E+00 g/cm**3
 Number of elements in the molecule =  2
   atomic number = 57,  atoms/molecule = 1.00000000E+00
   atomic number = 35,  atoms/molecule = 3.00000000E+00
 Mean excitation energy = 3.91912479E+02 eV
 Number of oscillators = 21 (E/P inelastic model)
   1  1.90000000E+01  0.00000000E+00  1.45205104E+01   0  30
   2  5.00000000E+00  1.80000000E+01  3.23190736E+01  57  30
   3  6.00000000E+00  2.70000000E+01  4.84902005E+01  35  30
   4  2.00000000E+00  3.60000000E+01  6.41558368E+01  57  30
   5  3.00000000E+01  6.94000000E+01  1.23920380E+02  35   8
   6  1.00000000E+01  1.03000000E+02  1.83331701E+02  57  30
   7  1.80000000E+01  1.84333333E+02  3.27972550E+02  35   6
   8  6.00000000E+00  1.96000000E+02  3.48699864E+02  57  30
   9  6.00000000E+00  2.57000000E+02  4.57225978E+02  35   5
  10  2.00000000E+00  2.71000000E+02  4.82097388E+02  57  30
  11  1.00000000E+01  8.41800000E+02  1.49741826E+03  57   8
  12  4.00000000E+00  1.12400000E+03  1.99949159E+03  57   7
  13  2.00000000E+00  1.20500000E+03  2.14357858E+03  57   6
  14  2.00000000E+00  1.36200000E+03  2.42286557E+03  57   5
  15  1.80000000E+01  1.56533333E+03  2.78432021E+03  35   3
  16  6.00000000E+00  1.78200000E+03  3.17000773E+03  35   2
  17  4.00000000E+00  5.48300000E+03  9.75371308E+03  57   4
  18  2.00000000E+00  5.89100000E+03  1.04795037E+04  57   3
  19  2.00000000E+00  6.26700000E+03  1.11483702E+04  57   2
  20  6.00000000E+00  1.34740000E+04  2.39689066E+04  35   1
  21  2.00000000E+00  3.89250000E+04  6.92437030E+04  57   1
 Number of shells = 18 (Compton IA model)
   1  1.90000000E+01  0.00000000E+00  9.15639322E-01   0  30
   2  5.00000000E+00  1.80000000E+01  4.33600000E-01  57  30
   3  8.00000000E+00  2.92500000E+01  7.33000000E-01   0  30
   4  4.00000000E+01  7.78000000E+01  1.13300000E-01   0  30
   5  3.20000000E+01  2.05562500E+02  1.70875000E-01   0  30
   6  6.00000000E+00  8.35000000E+02  4.69000000E-02  57   9
   7  4.00000000E+00  8.52000000E+02  4.63000000E-02  57   8
   8  4.00000000E+00  1.12400000E+03  7.01000000E-02  57   7
   9  2.00000000E+00  1.20500000E+03  6.75000000E-02  57   6
  10  2.00000000E+00  1.36200000E+03  1.14000000E-01  57   5
  11  1.20000000E+01  1.55000000E+03  4.59000000E-02  35   4
  12  6.00000000E+00  1.59600000E+03  4.59000000E-02  35   3
  13  6.00000000E+00  1.78200000E+03  9.09000000E-02  35   2
  14  4.00000000E+00  5.48300000E+03  2.63000000E-02  57   4
  15  2.00000000E+00  5.89100000E+03  2.48000000E-02  57   3
  16  2.00000000E+00  6.26700000E+03  5.01000000E-02  57   2
  17  6.00000000E+00  1.34740000E+04  2.48000000E-02  35   1
  18  2.00000000E+00  3.89250000E+04  1.40000000E-02  57   1
 *** RELAX:  Z = 57,  NO. OF SHELLS = 19,  NO. OF TRANSITIONS = 522
   1 1s1/2 2  3.89250000E+04
   2 2s1/2 2  6.26700000E+03
   3 2p1/2 2  5.89100000E+03
   4 2p3/2 4  5.48300000E+03
   5 3s1/2 2  1.36200000E+03
   6 3p1/2 2  1.20500000E+03
   7 3p3/2 4  1.12400000E+03
   8 3d3/2 4  8.52000000E+02
   9 3d5/2 6  8.35000000E+02
  10 4s1/2 2  2.71000000E+02
  11 4p1/2 2  1.96000000E+02
  12 4p3/2 4  1.96000000E+02
  13 4d3/2 4  1.03000000E+02
  14 4d5/2 6  1.03000000E+02
  17 5s1/2 2  3.60000000E+01
  18 5p1/2 2  1.80000000E+01
  19 5p3/2 4  1.80000000E+01
  20 5d3/2 1  6.00000000E+00
  24 6s1/2 2  6.00000000E+00
   1  3  0  2.60460000E-01  3.30344000E+04
   1  4  0  4.78351000E-01  3.34421000E+04
   1  6  0  4.61051000E-02  3.77206000E+04
   1  7  0  8.93241000E-02  3.78014000E+04
   1  8  0  5.23301000E-04  3.80746000E+04
   1  9  0  7.07811000E-04  3.80945000E+04
   1 11  0  9.78351000E-03  3.87303000E+04
   1 12  0  1.90470000E-02  3.87303000E+04
   1 13  0  1.10460000E-04  3.88282000E+04
   1 14  0  1.49380000E-04  3.88282000E+04
   1 18  0  1.53260000E-03  3.89147000E+04
   1 19  0  2.93570000E-03  3.89174000E+04
   1  2  2  7.51100000E-03  2.64594000E+04
   1  2  3  9.09623000E-03  2.67987000E+04
   1  2  4  1.02196000E-02  2.72174000E+04
   1  2  5  2.73086000E-03  3.13508000E+04
   1  2  6  1.77731000E-03  3.14964000E+04
   1  2  7  2.03029000E-03  3.15785000E+04
   1  2  8  1.36909000E-04  3.18362000E+04
   1  2  9  1.44041000E-04  3.18539000E+04
   1  2 10  6.16375000E-04  3.24221000E+04
   1  2 11  3.82621000E-04  3.24765000E+04
   1  2 12  4.35566000E-04  3.24941000E+04
   1  2 13  2.79206000E-05  3.25844000E+04
   1  2 14  2.92683000E-05  3.25874000E+04
   1  3  3  1.03398000E-03  2.71380000E+04
   1  3  4  2.14358000E-02  2.75567000E+04
   1  3  5  1.37779000E-03  3.16901000E+04
   1  3  6  3.60470000E-04  3.18357000E+04
   1  3  7  3.55314000E-03  3.19178000E+04
   1  3  8  1.60018000E-04  3.21755000E+04
   1  3  9  5.26277000E-04  3.21932000E+04
   1  3 10  2.99240000E-04  3.27614000E+04
   1  3 11  7.60602000E-05  3.28158000E+04
   1  3 12  7.36190000E-04  3.28334000E+04
   1  3 13  3.21576000E-05  3.29237000E+04
   1  3 14  1.05717000E-04  3.29267000E+04
   1  4  4  1.05453000E-02  2.79754000E+04
   1  4  5  1.50330000E-03  3.21088000E+04
   1  4  6  3.44689000E-03  3.22544000E+04
   1  4  7  3.59220000E-03  3.23365000E+04
   1  4  8  6.21980000E-04  3.25942000E+04
   1  4  9  5.66901000E-04  3.26119000E+04
   1  4 10  3.24662000E-04  3.31801000E+04
   1  4 11  7.15379000E-04  3.32345000E+04
   1  4 12  7.49067000E-04  3.32521000E+04
   1  4 13  1.25168000E-04  3.33424000E+04
   1  4 14  1.13999000E-04  3.33454000E+04
   1  5  5  2.44545000E-04  3.62422000E+04
   1  5  6  2.71683000E-04  3.63878000E+04
   1  5  7  3.01346000E-04  3.64699000E+04
   1  5  8  1.92556000E-05  3.67276000E+04
   1  5  9  1.94485000E-05  3.67453000E+04
   1  5 10  1.10144000E-04  3.73135000E+04
   1  5 11  5.85357000E-05  3.73679000E+04
   1  5 12  6.46973000E-05  3.73855000E+04
   1  5 13  4.04359000E-06  3.74758000E+04
   1  5 14  4.04359000E-06  3.74788000E+04
   1  6  6  3.02330000E-05  3.65334000E+04
   1  6  7  5.81348000E-04  3.66155000E+04
   1  6  8  2.04106000E-05  3.68732000E+04
   1  6  9  6.60500000E-05  3.68909000E+04
   1  6 10  5.91171000E-05  3.74591000E+04
   1  6 11  1.27089000E-05  3.75135000E+04
   1  6 12  1.20734000E-04  3.75311000E+04
   1  6 13  4.04383000E-06  3.76214000E+04
   1  6 14  1.32858000E-05  3.76244000E+04
   1  7  7  3.07142000E-04  3.66976000E+04
   1  7  8  8.41495000E-05  3.69553000E+04
   1  7  9  7.47160000E-05  3.69730000E+04
   1  7 10  6.52788000E-05  3.75412000E+04
   1  7 11  1.20929000E-04  3.75956000E+04
   1  7 12  1.28248000E-04  3.76132000E+04
   1  7 13  1.71380000E-05  3.77035000E+04
   1  7 14  1.52124000E-05  3.77065000E+04
   1  8  9  9.58138000E-06  3.72308000E+04
   1  8 10  4.13331000E-06  3.77989000E+04
   1  8 11  3.94544000E-06  3.78533000E+04
   1  8 12  1.63446000E-05  3.78710000E+04
   1  8 14  1.87882000E-06  3.79643000E+04
   1  9  9  2.27942000E-06  3.72484000E+04
   1  9 10  4.17881000E-06  3.78166000E+04
   1  9 11  1.29159000E-05  3.78710000E+04
   1  9 12  1.46260000E-05  3.78887000E+04
   1  9 13  1.89951000E-06  3.79789000E+04
   1  9 14  9.49696000E-07  3.79820000E+04
   1 10 10  1.16572000E-05  3.83847000E+04
   1 10 11  1.20205000E-05  3.84391000E+04
   1 10 12  1.32952000E-05  3.84568000E+04
   1 10 13  7.28508000E-07  3.85470000E+04
   1 10 14  7.28508000E-07  3.85501000E+04
   1 11 11  1.23297000E-06  3.84935000E+04
   1 11 12  2.30753000E-05  3.85112000E+04
   1 11 13  7.04571000E-07  3.86014000E+04
   1 11 14  2.46612000E-06  3.86045000E+04
   1 12 12  1.20228000E-05  3.85289000E+04
   1 12 13  3.13661000E-06  3.86191000E+04
   1 12 14  2.78818000E-06  3.86222000E+04
   1 13 14  3.36365000E-07  3.87124000E+04
   2  3  0  1.97811000E-05  3.39300000E+02
   2  4  0  4.85253000E-04  7.58000000E+02
   2  6  0  1.65301000E-02  5.06179000E+03
   2  7  0  2.53612000E-02  5.14340000E+03
   2  8  0  2.76122000E-04  5.41699000E+03
   2  9  0  4.12703000E-04  5.43579000E+03
   2 11  0  3.78713000E-03  6.06073000E+03
   2 12  0  6.00664000E-03  6.07532000E+03
   2 13  0  3.69512000E-05  6.16710000E+03
   2 14  0  5.65024000E-05  6.16710000E+03
   2 18  0  5.62464000E-04  6.21347000E+03
   2 19  0  8.77756000E-04  6.21621000E+03
   2  3 11  4.03504000E-02  1.14570000E+02
   2  3 12  5.01608000E-02  1.32230000E+02
   2  3 13  1.34367000E-02  2.22470000E+02
   2  3 14  2.18829000E-02  2.25540000E+02
   2  4 10  6.91806000E-02  4.78870000E+02
   2  4 11  3.01272000E-02  5.33270000E+02
   2  4 12  5.57159000E-02  5.50930000E+02
   2  4 13  6.59130000E-02  6.41170000E+02
   2  4 14  8.41383000E-02  6.44240000E+02
   2  5  5  1.27417000E-02  3.54100000E+03
   2  5  6  2.53717000E-02  3.68660000E+03
   2  5  7  4.63758000E-02  3.76870000E+03
   2  5  8  3.64277000E-02  4.02644000E+03
   2  5  9  5.10780000E-02  4.04412000E+03
   2  5 10  4.89394000E-03  4.61227000E+03
   2  5 11  5.34186000E-03  4.66667000E+03
   2  5 12  9.70430000E-03  4.68433000E+03
   2  5 13  6.32552000E-03  4.77457000E+03
   2  5 14  8.83185000E-03  4.77764000E+03
   2  6  6  1.31752000E-04  3.83220000E+03
   2  6  7  8.78344000E-04  3.91430000E+03
   2  6  8  1.11330000E-03  4.17204000E+03
   2  6  9  1.37378000E-02  4.18972000E+03
   2  6 10  3.89901000E-03  4.75787000E+03
   2  6 11  2.78139000E-05  4.81227000E+03
   2  6 12  1.74203000E-04  4.82993000E+03
   2  6 13  1.92505000E-04  4.92017000E+03
   2  6 14  1.57447000E-03  4.92324000E+03
   2  7  7  1.08259000E-03  3.99640000E+03
   2  7  8  8.87204000E-03  4.25414000E+03
   2  7  9  5.96854000E-03  4.27182000E+03
   2  7 10  7.11902000E-03  4.83997000E+03
   2  7 11  1.74940000E-04  4.89437000E+03
   2  7 12  3.42566000E-04  4.91203000E+03
   2  7 13  8.57138000E-04  5.00227000E+03
   2  7 14  5.97275000E-04  5.00534000E+03
   2  8  8  2.03852000E-03  4.51188000E+03
   2  8  9  7.26466000E-02  4.52956000E+03
   2  8 10  5.28692000E-03  5.09771000E+03
   2  8 11  3.02307000E-04  5.15211000E+03
   2  8 12  1.90161000E-03  5.16977000E+03
   2  8 13  6.99032000E-04  5.26001000E+03
   2  8 14  9.18686000E-03  5.26308000E+03
   2  9  9  2.04155000E-02  4.54724000E+03
   2  9 10  7.46402000E-03  5.11539000E+03
   2  9 11  2.63283000E-03  5.16979000E+03
   2  9 12  1.34319000E-03  5.18745000E+03
   2  9 13  9.06489000E-03  5.27769000E+03
   2  9 14  5.40420000E-03  5.28076000E+03
   2 10 10  4.46512000E-04  5.68354000E+03
   2 10 11  8.23470000E-04  5.73794000E+03
   2 10 12  1.49397000E-03  5.75560000E+03
   2 10 13  9.16432000E-04  5.84584000E+03
   2 10 14  1.28463000E-03  5.84891000E+03
   2 11 11  1.46393000E-06  5.79234000E+03
   2 11 12  3.51340000E-05  5.81000000E+03
   2 11 13  4.46510000E-05  5.90024000E+03
   2 11 14  3.11107000E-04  5.90331000E+03
   2 12 12  2.54948000E-05  5.82766000E+03
   2 12 13  1.84661000E-04  5.91790000E+03
   2 12 14  1.33673000E-04  5.92097000E+03
   2 13 13  5.45582000E-05  6.00814000E+03
   2 13 14  1.18819000E-03  6.01121000E+03
   2 14 14  3.51408000E-04  6.01428000E+03
   3  4  0  1.32340000E-07  4.18700000E+02
   3  5  0  4.35239000E-03  4.52490000E+03
   3  7  0  6.87938000E-05  4.76670000E+03
   3  8  0  9.06868000E-02  5.04217000E+03
   3 10  0  6.87818000E-04  5.62013000E+03
   3 12  0  1.05360000E-05  5.69860000E+03
   3 13  0  1.51540000E-02  5.78830000E+03
   3 17  0  9.69438000E-05  5.85885000E+03
   3 19  0  1.68380000E-06  5.87691000E+03
   3  4 10  1.07198000E-02  1.39570000E+02
   3  4 11  5.06992000E-02  1.93970000E+02
   3  4 12  1.73021000E-02  2.11630000E+02
   3  4 13  6.52978000E-02  3.01870000E+02
   3  4 14  2.40739000E-02  3.04940000E+02
   3  5  5  9.74747000E-04  3.20170000E+03
   3  5  6  2.43211000E-02  3.34730000E+03
   3  5  7  2.34279000E-03  3.42940000E+03
   3  5  8  2.01009000E-03  3.68714000E+03
   3  5  9  3.21693000E-03  3.70482000E+03
   3  5 10  3.47411000E-04  4.27297000E+03
   3  5 11  3.50030000E-03  4.32737000E+03
   3  5 12  4.35801000E-04  4.34503000E+03
   3  5 13  2.50391000E-04  4.43527000E+03
   3  5 14  3.46555000E-04  4.43834000E+03
   3  6  6  2.40357000E-02  3.49290000E+03
   3  6  7  7.39467000E-02  3.57500000E+03
   3  6  8  3.93775000E-02  3.83274000E+03
   3  6  9  6.63866000E-02  3.85042000E+03
   3  6 10  5.59335000E-03  4.41857000E+03
   3  6 11  8.66221000E-03  4.47297000E+03
   3  6 12  1.52087000E-02  4.49063000E+03
   3  6 13  6.82273000E-03  4.58087000E+03
   3  6 14  1.15053000E-02  4.58394000E+03
   3  7  7  1.91992000E-03  3.65710000E+03
   3  7  8  4.56623000E-02  3.91484000E+03
   3  7  9  6.21036000E-03  3.93252000E+03
   3  7 10  4.61769000E-04  4.50067000E+03
   3  7 11  1.10330000E-02  4.55507000E+03
   3  7 12  6.68866000E-04  4.57273000E+03
   3  7 13  6.78644000E-03  4.66297000E+03
   3  7 14  8.66396000E-04  4.66604000E+03
   3  8  8  4.18869000E-02  4.17258000E+03
   3  8  9  1.78480000E-01  4.19026000E+03
   3  8 10  4.68721000E-04  4.75841000E+03
   3  8 11  5.85355000E-03  4.81281000E+03
   3  8 12  8.86754000E-03  4.83047000E+03
   3  8 13  1.23894000E-02  4.92071000E+03
   3  8 14  2.82950000E-02  4.92378000E+03
   3  9  9  8.52029000E-03  4.20794000E+03
   3  9 10  6.21213000E-04  4.77609000E+03
   3  9 11  8.79933000E-03  4.83049000E+03
   3  9 12  1.10293000E-03  4.84815000E+03
   3  9 13  2.23505000E-02  4.93839000E+03
   3  9 14  2.45970000E-03  4.94146000E+03
   3 10 10  3.00728000E-05  5.34424000E+03
   3 10 11  8.02514000E-04  5.39864000E+03
   3 10 12  8.59226000E-05  5.41630000E+03
   3 10 13  5.58488000E-05  5.50654000E+03
   3 10 14  6.78769000E-05  5.50961000E+03
   3 11 11  6.89191000E-04  5.45304000E+03
   3 11 12  2.09629000E-03  5.47070000E+03
   3 11 13  9.21818000E-04  5.56094000E+03
   3 11 14  1.41759000E-03  5.56401000E+03
   3 12 12  5.58378000E-05  5.48836000E+03
   3 12 13  1.25964000E-03  5.57860000E+03
   3 12 14  1.50271000E-04  5.58167000E+03
   3 13 13  8.71524000E-04  5.66884000E+03
   3 13 14  3.51624000E-03  5.67191000E+03
   3 14 14  1.63785000E-04  5.67498000E+03
   4  5  0  7.94728000E-03  4.12450000E+03
   4  6  0  4.64224000E-05  4.27890000E+03
   4  7  0  4.30334000E-05  4.35930000E+03
   4  8  0  8.88689000E-03  4.63426000E+03
   4  9  0  7.87038000E-02  4.65102000E+03
   4 10  0  7.99448000E-04  5.21163000E+03
   4 11  0  5.05065000E-06  5.25907000E+03
   4 12  0  4.87535000E-06  5.29120000E+03
   4 13  0  1.43911000E-03  5.38287000E+03
   4 14  0  1.28741000E-02  5.38287000E+03
   4 17  0  1.29521000E-04  5.44015000E+03
   4 18  0  8.09308000E-07  5.45547000E+03
   4 19  0  7.60547000E-07  5.45821000E+03
   4  5  5  1.29521000E-03  2.78300000E+03
   4  5  6  8.80055000E-04  2.92860000E+03
   4  5  7  2.81684000E-02  3.01070000E+03
   4  5  8  2.78485000E-03  3.26844000E+03
   4  5  9  3.22439000E-03  3.28612000E+03
   4  5 10  4.63050000E-04  3.85427000E+03
   4  5 11  1.52153000E-04  3.90867000E+03
   4  5 12  4.05857000E-03  3.92633000E+03
   4  5 13  2.56407000E-04  4.01657000E+03
   4  5 14  2.72381000E-04  4.01964000E+03
   4  6  6  2.77071000E-04  3.07420000E+03
   4  6  7  4.69133000E-02  3.15630000E+03
   4  6  8  2.96526000E-03  3.41404000E+03
   4  6  9  2.66476000E-02  3.43172000E+03
   4  6 10  1.69064000E-04  3.99987000E+03
   4  6 11  9.67396000E-05  4.05427000E+03
   4  6 12  7.00495000E-03  4.07193000E+03
   4  6 13  4.78072000E-04  4.16217000E+03
   4  6 14  3.71648000E-03  4.16524000E+03
   4  7  7  6.52441000E-02  3.23840000E+03
   4  7  8  6.60624000E-02  3.49614000E+03
   4  7  9  9.83858000E-02  3.51382000E+03
   4  7 10  6.41019000E-03  4.08197000E+03
   4  7 11  9.47088000E-03  4.13637000E+03
   4  7 12  2.31108000E-02  4.15403000E+03
   4  7 13  1.10096000E-02  4.24427000E+03
   4  7 14  1.62152000E-02  4.24734000E+03
   4  8  8  9.50104000E-03  3.75388000E+03
   4  8  9  1.82037000E-01  3.77156000E+03
   4  8 10  5.96413000E-04  4.33971000E+03
   4  8 11  5.97351000E-04  4.39411000E+03
   4  8 12  9.19299000E-03  4.41177000E+03
   4  8 13  2.80638000E-03  4.50201000E+03
   4  8 14  2.30884000E-02  4.50508000E+03
   4  9  9  1.23233000E-01  3.78924000E+03
   4  9 10  7.33555000E-04  4.35739000E+03
   4  9 11  5.00045000E-03  4.41179000E+03
   4  9 12  1.53150000E-02  4.42945000E+03
   4  9 13  2.71640000E-02  4.51969000E+03
   4  9 14  3.49033000E-02  4.52276000E+03
   4 10 10  4.08284000E-05  4.92554000E+03
   4 10 11  2.96924000E-05  4.97994000E+03
   4 10 12  9.14898000E-04  4.99760000E+03
   4 10 13  5.84589000E-05  5.08784000E+03
   4 10 14  6.58825000E-05  5.09091000E+03
   4 11 11  6.95604000E-06  5.03434000E+03
   4 11 12  1.30681000E-03  5.05200000E+03
   4 11 13  8.69507000E-05  5.14224000E+03
   4 11 14  6.66021000E-04  5.14531000E+03
   4 12 12  1.72299000E-03  5.06966000E+03
   4 12 13  1.33625000E-03  5.15990000E+03
   4 12 14  2.17113000E-03  5.16297000E+03
   4 13 13  1.94304000E-04  5.25014000E+03
   4 13 14  3.41628000E-03  5.25321000E+03
   4 14 14  2.48338000E-03  5.25628000E+03
   5  6  0  1.20702000E-05  1.45600000E+02
   5  7  0  9.50744000E-05  2.27700000E+02
   5 11  0  2.81588000E-04  1.12567000E+03
   5 12  0  3.69262000E-04  1.14333000E+03
   5 18  0  4.99631000E-05  1.32207000E+03
   5 19  0  6.57250000E-05  1.32481000E+03
   5  7 13  6.44967000E-02  1.10870000E+02
   5  7 14  9.36698000E-02  1.13940000E+02
   5  8 10  3.41261000E-02  2.06310000E+02
   5  8 11  7.38531000E-03  2.60710000E+02
   5  8 12  5.96823000E-03  2.78370000E+02
   5  8 13  1.01577000E-02  3.68610000E+02
   5  8 14  1.26534000E-02  3.71680000E+02
   5  9 10  4.97529000E-02  2.23990000E+02
   5  9 11  1.74400000E-03  2.78390000E+02
   5  9 12  1.43992000E-02  2.96050000E+02
   5  9 13  1.33693000E-02  3.86290000E+02
   5  9 14  2.07365000E-02  3.89360000E+02
   5 10 10  7.19801000E-03  7.92140000E+02
   5 10 11  1.18408000E-02  8.46540000E+02
   5 10 12  2.17025000E-02  8.64200000E+02
   5 10 13  2.25925000E-02  9.54440000E+02
   5 10 14  3.29072000E-02  9.57510000E+02
   5 11 11  5.98629000E-04  9.00940000E+02
   5 11 12  1.48080000E-03  9.18600000E+02
   5 11 13  9.05642000E-04  1.00884000E+03
   5 11 14  3.77914000E-04  1.01191000E+03
   5 12 12  1.89878000E-03  9.36260000E+02
   5 12 13  9.52294000E-04  1.02650000E+03
   5 12 14  2.55247000E-03  1.02957000E+03
   5 13 13  2.80428000E-04  1.11674000E+03
   5 13 14  1.12941000E-03  1.11981000E+03
   5 14 14  6.90144000E-04  1.12288000E+03
   6  8  0  4.31287000E-04  3.39840000E+02
   6 10  0  3.32713000E-04  9.25670000E+02
   6 13  0  1.45150000E-03  1.08797000E+03
   6 17  0  5.68378000E-05  1.16115000E+03
   6  8 11  1.28218000E-01  1.15110000E+02
   6  8 12  1.83653000E-01  1.32770000E+02
   6  8 13  5.61719000E-02  2.23010000E+02
   6  8 14  6.22306000E-02  2.26080000E+02
   6  9 11  1.47001000E-01  1.32790000E+02
   6  9 12  1.52156000E-02  1.50450000E+02
   6  9 13  2.87749000E-03  2.40690000E+02
   6  9 14  7.13583000E-03  2.43760000E+02
   6 10 10  7.27051000E-04  6.46540000E+02
   6 10 11  1.02368000E-02  7.00940000E+02
   6 10 12  1.66991000E-03  7.18600000E+02
   6 10 13  3.62098000E-04  8.08840000E+02
   6 10 14  1.14329000E-03  8.11910000E+02
   6 11 11  7.67859000E-03  7.55340000E+02
   6 11 12  2.38563000E-02  7.73000000E+02
   6 11 13  2.16527000E-02  8.63240000E+02
   6 11 14  3.59904000E-02  8.66310000E+02
   6 12 12  7.21660000E-04  7.90660000E+02
   6 12 13  2.25603000E-03  8.80900000E+02
   6 12 14  1.68882000E-03  8.83970000E+02
   6 13 13  7.02943000E-04  9.71140000E+02
   6 13 14  1.89463000E-03  9.74210000E+02
   6 14 14  3.06129000E-04  9.77280000E+02
   7  8  0  1.97111000E-05  2.57740000E+02
   7  9  0  2.22313000E-04  2.75420000E+02
   7 10  0  4.18515000E-04  8.43570000E+02
   7 13  0  1.77749000E-04  1.02700000E+03
   7 14  0  1.46315000E-03  1.02700000E+03
   7 17  0  7.14704000E-05  1.07905000E+03
   7  8 13  1.38934000E-02  1.40910000E+02
   7  8 14  1.06315000E-02  1.43980000E+02
   7  9 13  5.53428000E-02  1.58590000E+02
   7  9 14  8.92749000E-02  1.61660000E+02
   7 10 10  7.80788000E-04  5.64440000E+02
   7 10 11  1.14488000E-03  6.18840000E+02
   7 10 12  1.66480000E-02  6.36500000E+02
   7 10 13  1.00544000E-03  7.26740000E+02
   7 10 14  1.09143000E-03  7.29810000E+02
   7 11 11  1.85754000E-04  6.73240000E+02
   7 11 12  2.00548000E-02  6.90900000E+02
   7 11 13  5.45009000E-04  7.81140000E+02
   7 11 14  3.38799000E-03  7.84210000E+02
   7 12 12  2.61932000E-02  7.08560000E+02
   7 12 13  3.47042000E-02  7.98800000E+02
   7 12 14  4.71322000E-02  8.01870000E+02
   7 13 13  2.08177000E-04  8.89040000E+02
   7 13 14  2.86688000E-03  8.92110000E+02
   7 14 14  1.34695000E-03  8.95180000E+02
   8 11  0  2.76061000E-03  6.40230000E+02
   8 12  0  4.22472000E-04  6.57890000E+02
   8 18  0  4.14312000E-04  8.36630000E+02
   8 19  0  6.24853000E-05  8.39370000E+02
   8 10 11  4.83803000E-03  3.61100000E+02
   8 10 12  3.61784000E-03  3.78760000E+02
   8 10 13  1.05488000E-01  4.69000000E+02
   8 10 14  1.41866000E-02  4.72070000E+02
   8 11 11  1.99574000E-03  4.15500000E+02
   8 11 12  1.60764000E-02  4.33160000E+02
   8 11 13  8.67847000E-02  5.23400000E+02
   8 11 14  7.60890000E-03  5.26470000E+02
   8 12 12  6.10545000E-03  4.50820000E+02
   8 12 13  1.91395000E-01  5.41060000E+02
   8 12 14  7.20769000E-03  5.44130000E+02
   8 13 13  1.50766000E-01  6.31300000E+02
   8 13 14  3.09837000E-01  6.34370000E+02
   8 14 14  5.19228000E-03  6.37440000E+02
   9 12  0  2.99184000E-03  6.38000000E+02
   9 19  0  4.42066000E-04  8.21690000E+02
   9 10 10  2.30974000E-05  2.89020000E+02
   9 10 11  1.68225000E-03  3.43420000E+02
   9 10 12  7.30286000E-03  3.61080000E+02
   9 10 13  1.04519000E-02  4.51320000E+02
   9 10 14  1.10392000E-01  4.54390000E+02
   9 11 11  7.69944000E-06  3.97820000E+02
   9 11 12  1.57274000E-02  4.15480000E+02
   9 11 13  1.10497000E-03  5.05720000E+02
   9 11 14  1.06019000E-01  5.08790000E+02
   9 12 12  1.21110000E-02  4.33140000E+02
   9 12 13  9.81641000E-03  5.23380000E+02
   9 12 14  1.74506000E-01  5.26450000E+02
   9 13 13  2.08648000E-03  6.13620000E+02
   9 13 14  2.17821000E-01  6.16690000E+02
   9 14 14  2.51948000E-01  6.19760000E+02
   1  2 30  2.42046000E-04  3.27012000E+04
   1  3 30  1.77164000E-04  3.30405000E+04
   1  4 30  2.80175000E-04  3.34592000E+04
   1  5 30  3.98588000E-05  3.75926000E+04
   1  6 30  3.08098000E-05  3.77382000E+04
   1  7 30  4.94887000E-05  3.78203000E+04
   1  8 30  3.75748000E-06  3.80780000E+04
   1  9 30  4.74873000E-06  3.80957000E+04
   1 10 30  8.37814000E-06  3.86639000E+04
   1 11 30  5.98906000E-06  3.87183000E+04
   1 12 30  9.23548000E-06  3.87359000E+04
   1 13 30  8.40937000E-07  3.88262000E+04
   1 14 30  8.96541000E-07  3.88292000E+04
   1 30 30  1.68775000E-06  3.89430000E+04
   2  3 30  7.86804000E-02  3.39300000E+02
   2  4 30  2.62774000E-02  7.58000000E+02
   2  5 30  3.23900000E-03  4.89140000E+03
   2  6 30  7.39976000E-04  5.03700000E+03
   2  7 30  1.37907000E-03  5.11910000E+03
   2  8 30  1.28681000E-03  5.37684000E+03
   2  9 30  2.06269000E-03  5.39452000E+03
   2 10 30  5.22625000E-04  5.96267000E+03
   2 11 30  1.55177000E-04  6.01707000E+03
   2 12 30  2.70094000E-04  6.03473000E+03
   2 13 30  1.95557000E-04  6.12497000E+03
   2 14 30  2.94886000E-04  6.12804000E+03
   2 30 30  6.05113000E-05  6.24180000E+03
   3  4 30  1.24969000E-02  4.18700000E+02
   3  5 30  6.17744000E-04  4.55210000E+03
   3  6 30  4.67066000E-03  4.69770000E+03
   3  7 30  1.82981000E-03  4.77980000E+03
   3  8 30  2.37825000E-03  5.03754000E+03
   3  9 30  1.80991000E-03  5.05522000E+03
   3 10 30  1.35762000E-04  5.62337000E+03
   3 11 30  6.64395000E-04  5.67777000E+03
   3 12 30  3.51443000E-04  5.69543000E+03
   3 13 30  3.56629000E-04  5.78567000E+03
   3 14 30  2.75884000E-04  5.78874000E+03
   3 30 30  8.75079000E-05  5.90250000E+03
   4  5 30  6.64976000E-04  4.13340000E+03
   4  6 30  1.01532000E-03  4.27900000E+03
   4  7 30  6.10405000E-03  4.36110000E+03
   4  8 30  1.49242000E-03  4.61884000E+03
   4  9 30  3.41315000E-03  4.63652000E+03
   4 10 30  1.44751000E-04  5.20467000E+03
   4 11 30  1.88679000E-04  5.25907000E+03
   4 12 30  8.46389000E-04  5.27673000E+03
   4 13 30  2.30457000E-04  5.36697000E+03
   4 14 30  5.17552000E-04  5.37004000E+03
   4 30 30  9.88300000E-05  5.48380000E+03
   5  6 30  2.46446000E-01  1.45600000E+02
   5  7 30  2.82321000E-01  2.27700000E+02
   5  8 30  6.15892000E-03  4.85440000E+02
   5  9 30  8.51756000E-03  5.03120000E+02
   5 10 30  7.53904000E-03  1.07127000E+03
   5 11 30  1.70952000E-03  1.12567000E+03
   5 12 30  3.09573000E-03  1.14333000E+03
   5 13 30  2.97125000E-03  1.23357000E+03
   5 14 30  4.30197000E-03  1.23664000E+03
   5 30 30  4.98108000E-04  1.35040000E+03
   6  7 30  3.14685000E-02  8.21000000E+01
   6  8 30  1.94387000E-01  3.39840000E+02
   6  9 30  4.07788000E-02  3.57520000E+02
   6 10 30  1.46561000E-03  9.25670000E+02
   6 11 30  7.74293000E-03  9.80070000E+02
   6 12 30  3.14726000E-03  9.97730000E+02
   6 13 30  2.32201000E-03  1.08797000E+03
   6 14 30  2.52746000E-03  1.09104000E+03
   6 30 30  4.98039000E-04  1.20480000E+03
   7  8 30  1.35235000E-01  2.57740000E+02
   7  9 30  5.11901000E-01  2.75420000E+02
   7 10 30  2.04759000E-03  8.43570000E+02
   7 11 30  2.24115000E-03  8.97970000E+02
   7 12 30  1.24454000E-02  9.15630000E+02
   7 13 30  2.99788000E-03  1.00587000E+03
   7 14 30  3.54064000E-03  1.00894000E+03
   7 30 30  7.80683000E-04  1.12270000E+03
   8  9 30  1.16010000E-02  1.76800000E+01
   8 10 30  1.46048000E-03  5.85830000E+02
   8 11 30  3.16482000E-03  6.40230000E+02
   8 12 30  4.32230000E-03  6.57890000E+02
   8 13 30  5.98194000E-02  7.48130000E+02
   8 14 30  4.45227000E-03  7.51200000E+02
   8 30 30  4.20272000E-04  8.64960000E+02
   9 10 30  1.43977000E-03  5.68150000E+02
   9 11 30  2.30214000E-03  6.22550000E+02
   9 12 30  5.88972000E-03  6.40210000E+02
   9 13 30  3.14515000E-03  7.30450000E+02
   9 14 30  6.20966000E-02  7.33520000E+02
   9 30 30  6.92929000E-04  8.47280000E+02
 *** RELAX:  Z = 35,  NO. OF SHELLS = 12,  NO. OF TRANSITIONS = 265
   1 1s1/2 2  1.34740000E+04
   2 2s1/2 2  1.78200000E+03
   3 2p1/2 2  1.59600000E+03
   4 2p3/2 4  1.55000000E+03
   5 3s1/2 2  2.57000000E+02
   6 3p1/2 2  1.89000000E+02
   7 3p3/2 4  1.82000000E+02
   8 3d3/2 4  7.00000000E+01
   9 3d5/2 6  6.90000000E+01
  10 4s1/2 2  2.70000000E+01
  11 4p1/2 2  1.20000000E+01
  12 4p3/2 3  1.20000000E+01
   1  3  0  1.82072000E-01  1.18778000E+04
   1  4  0  3.51534000E-01  1.19244000E+04
   1  6  0  2.51133000E-02  1.32847000E+04
   1  7  0  4.89996000E-02  1.32916000E+04
   1  8  0  6.60448000E-05  1.33963000E+04
   1  9  0  9.48212000E-05  1.33963000E+04
   1 11  0  1.67432000E-03  1.34696000E+04
   1 12  0  3.22224000E-03  1.34696000E+04
   1  2  2  2.67974000E-02  9.89660000E+03
   1  2  3  2.99306000E-02  1.00637000E+04
   1  2  4  4.99645000E-02  1.01122000E+04
   1  2  5  7.86075000E-03  1.14143000E+04
   1  2  6  4.42909000E-03  1.14740000E+04
   1  2  7  7.33790000E-03  1.14810000E+04
   1  2  8  3.18089000E-04  1.15862000E+04
   1  2  9  4.15274000E-04  1.15873000E+04
   1  2 10  9.67001000E-04  1.16416000E+04
   1  2 11  3.41232000E-04  1.16542000E+04
   1  2 12  5.59865000E-04  1.16548000E+04
   1  3  3  5.04687000E-03  1.02308000E+04
   1  3  4  1.16418000E-01  1.02793000E+04
   1  3  5  3.67835000E-03  1.15814000E+04
   1  3  6  1.38227000E-03  1.16411000E+04
   1  3  7  1.45724000E-02  1.16481000E+04
   1  3  8  4.29136000E-04  1.17533000E+04
   1  3  9  1.55696000E-03  1.17544000E+04
   1  3 10  4.40707000E-04  1.18087000E+04
   1  3 11  1.05265000E-04  1.18213000E+04
   1  3 12  1.09197000E-03  1.18219000E+04
   1  4  4  6.31223000E-02  1.03278000E+04
   1  4  5  6.16168000E-03  1.16299000E+04
   1  4  6  1.45364000E-02  1.16896000E+04
   1  4  7  1.61080000E-02  1.16966000E+04
   1  4  8  1.91546000E-03  1.18018000E+04
   1  4  9  1.85069000E-03  1.18029000E+04
   1  4 10  7.39164000E-04  1.18572000E+04
   1  4 11  1.09774000E-03  1.18698000E+04
   1  4 12  1.20988000E-03  1.18704000E+04
   1  5  5  5.79069000E-04  1.29320000E+04
   1  5  6  5.57886000E-04  1.29917000E+04
   1  5  7  9.25090000E-04  1.29987000E+04
   1  5  8  3.76614000E-05  1.31039000E+04
   1  5  9  4.82506000E-05  1.31051000E+04
   1  5 10  1.42414000E-04  1.31593000E+04
   1  5 11  4.35452000E-05  1.31719000E+04
   1  5 12  7.06144000E-05  1.31725000E+04
   1  6  6  9.31028000E-05  1.30514000E+04
   1  6  7  1.89792000E-03  1.30584000E+04
   1  6  8  4.29733000E-05  1.31636000E+04
   1  6  9  1.62337000E-04  1.31647000E+04
   1  6 10  6.80374000E-05  1.32190000E+04
   1  6 11  1.43238000E-05  1.32316000E+04
   1  6 12  1.42039000E-04  1.32321000E+04
   1  7  7  1.07812000E-03  1.30654000E+04
   1  7  8  2.05929000E-04  1.31706000E+04
   1  7  9  1.95027000E-04  1.31718000E+04
   1  7 10  1.13861000E-04  1.32260000E+04
   1  7 11  1.45361000E-04  1.32386000E+04
   1  7 12  1.62322000E-04  1.32392000E+04
   1  8  9  1.73518000E-05  1.32770000E+04
   1  8 10  4.62706000E-06  1.33312000E+04
   1  8 11  3.47027000E-06  1.33438000E+04
   1  8 12  1.38813000E-05  1.33444000E+04
   1  9  9  4.62689000E-06  1.32781000E+04
   1  9 10  5.78333000E-06  1.33324000E+04
   1  9 11  1.15674000E-05  1.33450000E+04
   1  9 12  1.38808000E-05  1.33455000E+04
   1 10 10  8.09713000E-06  1.33866000E+04
   1 10 11  4.62701000E-06  1.33992000E+04
   1 10 12  8.09713000E-06  1.33998000E+04
   1 11 12  1.04111000E-05  1.34124000E+04
   1 12 12  5.78347000E-06  1.34129000E+04
   2  3  0  1.42686000E-05  1.67100000E+02
   2  4  0  8.04171000E-05  2.15600000E+02
   2  6  0  1.02582000E-03  1.59630000E+03
   2  7  0  1.83441000E-03  1.59630000E+03
   2  8  0  5.59093000E-06  1.71190000E+03
   2  9  0  8.31591000E-06  1.71300000E+03
   2 11  0  7.28638000E-05  1.77950000E+03
   2 12  0  1.29402000E-04  1.77879000E+03
   2  3 10  9.47382000E-03  1.42920000E+02
   2  3 11  4.30534000E-03  1.55510000E+02
   2  3 12  5.98302000E-03  1.56070000E+02
   2  4  8  1.60186000E-01  1.36010000E+02
   2  4  9  2.28694000E-01  1.37150000E+02
