 PENELOPE (v. 2005)  Material data file ...............
 Material: YAG                                                         
 Mass density = 4.55000000E+00 g/cm**3
 Number of elements in the molecule =  3
   atomic number = 39,  atoms/molecule = 3.00000000E+00
   atomic number = 13,  atoms/molecule = 5.00000000E+00
   atomic number =  8,  atoms/molecule = 1.20000000E+01
 Mean excitation energy = 1.93775812E+02 eV
 Number of oscillators = 15 (E/P inelastic model)
   1  2.40000000E+01  0.00000000E+00  1.23592258E+01   0  30
   2  4.80000000E+01  1.40000000E+01  3.02751615E+01   8   3
   3  2.40000000E+01  2.40000000E+01  4.99620473E+01   8   2
   4  1.80000000E+01  2.60000000E+01  5.34084974E+01  39  30
   5  6.00000000E+00  4.60000000E+01  9.39225849E+01  39  30
   6  3.00000000E+01  7.30000000E+01  1.49073175E+02  13   3
   7  1.00000000E+01  1.18000000E+02  2.40672103E+02  13   2
   8  3.00000000E+01  1.58800000E+02  3.23865188E+02  39   8
   9  1.80000000E+01  3.05000000E+02  6.21776767E+02  39   6
  10  6.00000000E+00  3.95000000E+02  8.05360339E+02  39   5
  11  2.40000000E+01  5.43000000E+02  1.10713987E+03   8   1
  12  1.00000000E+01  1.55800000E+03  3.17653018E+03  13   1
  13  1.80000000E+01  2.10500000E+03  4.29117711E+03  39   3
  14  6.00000000E+00  2.37300000E+03  4.83818637E+03  39   2
  15  6.00000000E+00  1.70390000E+04  3.47399130E+04  39   1
 Number of shells = 15 (Compton IA model)
   1  2.40000000E+01  0.00000000E+00  1.07575916E+00   0  30
   2  4.80000000E+01  1.40000000E+01  3.50000000E-01   8  30
   3  4.20000000E+01  2.48571429E+01  4.87000000E-01   0  30
   4  6.00000000E+00  4.60000000E+01  5.33000000E-01  39  30
   5  3.00000000E+01  7.30000000E+01  1.68000000E-01  13  30
   6  4.00000000E+01  1.48600000E+02  1.40765000E-01   0  30
   7  1.20000000E+01  3.01000000E+02  1.20000000E-01  39   7
   8  6.00000000E+00  3.13000000E+02  1.18000000E-01  39   6
   9  6.00000000E+00  3.95000000E+02  1.96000000E-01  39   5
  10  2.40000000E+01  5.43000000E+02  1.13000000E-01   8   1
  11  1.00000000E+01  1.55800000E+03  6.86000000E-02  13   1
  12  1.20000000E+01  2.08000000E+03  4.04000000E-02  39   4
  13  6.00000000E+00  2.15500000E+03  3.94000000E-02  39   3
  14  6.00000000E+00  2.37300000E+03  7.85000000E-02  39   2
  15  6.00000000E+00  1.70390000E+04  2.15000000E-02  39   1
 *** RELAX:  Z = 39,  NO. OF SHELLS = 14,  NO. OF TRANSITIONS = 447
   1 1s1/2 2  1.70390000E+04
   2 2s1/2 2  2.37300000E+03
   3 2p1/2 2  2.15500000E+03
   4 2p3/2 4  2.08000000E+03
   5 3s1/2 2  3.95000000E+02
   6 3p1/2 2  3.13000000E+02
   7 3p3/2 4  3.01000000E+02
   8 3d3/2 4  1.60000000E+02
   9 3d5/2 6  1.58000000E+02
  10 4s1/2 2  4.60000000E+01
  11 4p1/2 2  2.60000000E+01
  12 4p3/2 4  2.60000000E+01
  13 4d3/2 1  6.00000000E+00
  17 5s1/2 2  6.00000000E+00
   1  3  0  2.06808000E-01  1.48829000E+04
   1  4  0  3.96256000E-01  1.49585000E+04
   1  6  0  3.07037000E-02  1.67259000E+04
   1  7  0  5.98234000E-02  1.67381000E+04
   1  8  0  1.17909000E-04  1.68798000E+04
   1  9  0  1.67888000E-04  1.68798000E+04
   1 11  0  4.52636000E-03  1.70156000E+04
   1 12  0  8.71401000E-03  1.70156000E+04
   1 13  0  6.95743000E-07  1.70362000E+04
   1 14  0  9.83070000E-07  1.70362000E+04
   1  2  2  2.05016000E-02  1.22902000E+04
   1  2  3  2.30498000E-02  1.24854000E+04
   1  2  4  3.64985000E-02  1.25636000E+04
   1  2  5  6.37286000E-03  1.42593000E+04
   1  2  6  3.69254000E-03  1.43328000E+04
   1  2  7  5.81573000E-03  1.43452000E+04
   1  2  8  2.93071000E-04  1.44764000E+04
   1  2  9  3.69576000E-04  1.44786000E+04
   1  2 10  1.01041000E-03  1.45918000E+04
   1  2 11  4.99232000E-04  1.46114000E+04
   1  2 12  7.83425000E-04  1.46130000E+04
   1  2 13  2.41547000E-06  1.46399000E+04
   1  2 14  2.41547000E-06  1.46400000E+04
   1  3  3  3.71064000E-03  1.26806000E+04
   1  3  4  8.40673000E-02  1.27588000E+04
   1  3  5  2.98502000E-03  1.44545000E+04
   1  3  6  1.09023000E-03  1.45280000E+04
   1  3  7  1.13392000E-02  1.45404000E+04
   1  3  8  3.86502000E-04  1.46716000E+04
   1  3  9  1.38413000E-03  1.46738000E+04
   1  3 10  4.58972000E-04  1.47869000E+04
   1  3 11  1.45745000E-04  1.48066000E+04
   1  3 12  1.49200000E-03  1.48082000E+04
   1  3 13  2.41561000E-06  1.48351000E+04
   1  3 14  9.66263000E-06  1.48352000E+04
   1  4  4  4.49051000E-02  1.28370000E+04
   1  4  5  4.73125000E-03  1.45327000E+04
   1  4  6  1.12661000E-02  1.46062000E+04
   1  4  7  1.23690000E-02  1.46186000E+04
   1  4  8  1.69248000E-03  1.47498000E+04
   1  4  9  1.62077000E-03  1.47520000E+04
   1  4 10  7.27848000E-04  1.48651000E+04
   1  4 11  1.48558000E-03  1.48848000E+04
   1  4 12  1.63372000E-03  1.48864000E+04
   1  4 13  1.20777000E-05  1.49133000E+04
   1  4 14  1.12721000E-05  1.49134000E+04
   1  5  5  4.88729000E-04  1.62284000E+04
   1  5  6  4.82292000E-04  1.63019000E+04
   1  5  7  7.58456000E-04  1.63143000E+04
   1  5  8  3.54284000E-05  1.64455000E+04
   1  5  9  4.42830000E-05  1.64477000E+04
   1  5 10  1.54593000E-04  1.65609000E+04
   1  5 11  6.52183000E-05  1.65805000E+04
   1  5 12  1.02255000E-04  1.65821000E+04
   1  6  6  7.58991000E-05  1.63755000E+04
   1  6  7  1.52593000E-03  1.63878000E+04
   1  6  8  3.99448000E-05  1.65190000E+04
   1  6  9  1.47809000E-04  1.65212000E+04
   1  6 10  7.35042000E-05  1.66344000E+04
   1  6 11  1.99735000E-05  1.66540000E+04
   1  6 12  2.01329000E-04  1.66556000E+04
   1  6 14  7.98967000E-07  1.66826000E+04
   1  7  7  8.42945000E-04  1.64002000E+04
   1  7  8  1.84495000E-04  1.65313000E+04
   1  7  9  1.72570000E-04  1.65336000E+04
   1  7 10  1.15311000E-04  1.66467000E+04
   1  7 11  2.00397000E-04  1.66664000E+04
   1  7 12  2.22668000E-04  1.66679000E+04
   1  7 13  1.59050000E-06  1.66948000E+04
   1  7 14  1.59050000E-06  1.66950000E+04
   1  8  9  1.85189000E-05  1.66648000E+04
   1  8 10  5.63610000E-06  1.67779000E+04
   1  8 11  4.83087000E-06  1.67975000E+04
   1  8 12  2.41544000E-05  1.67991000E+04
   1  9  9  4.92116000E-06  1.66670000E+04
   1  9 10  6.56170000E-06  1.67801000E+04
   1  9 11  1.96856000E-05  1.67998000E+04
   1  9 12  2.29658000E-05  1.68014000E+04
   1 10 10  1.06188000E-05  1.68933000E+04
   1 10 11  8.49496000E-06  1.69129000E+04
   1 10 12  1.41582000E-05  1.69145000E+04
   1 11 11  1.45617000E-06  1.69326000E+04
   1 11 12  2.40264000E-05  1.69342000E+04
   1 12 12  1.31093000E-05  1.69357000E+04
   2  3  0  1.42440000E-05  1.95200000E+02
   2  4  0  8.72648000E-05  2.73400000E+02
   2  6  0  1.49080000E-03  2.05999000E+03
   2  7  0  2.61029000E-03  2.07217000E+03
   2  8  0  1.07610000E-05  2.21210000E+03
   2  9  0  1.60210000E-05  2.21430000E+03
   2 11  0  2.03209000E-04  2.34682000E+03
   2 12  0  3.58709000E-04  2.34682000E+03
   2 13  0  5.05809000E-08  2.37380000E+03
   2 14  0  7.52018000E-08  2.34977000E+03
   2  3 10  1.92459000E-02  1.41850000E+02
   2  3 11  1.20523000E-02  1.61490000E+02
   2  3 12  1.67136000E-02  1.63060000E+02
   2  3 13  3.22272000E-04  1.89960000E+02
   2  3 14  5.50785000E-04  1.90070000E+02
   2  4  8  2.51251000E-01  1.04660000E+02
   2  4  9  3.58887000E-01  1.06890000E+02
   2  4 10  3.05364000E-02  2.20050000E+02
   2  4 11  1.28267000E-02  2.39690000E+02
   2  4 12  2.65786000E-02  2.41260000E+02
   2  4 13  1.14264000E-03  2.68160000E+02
   2  4 14  1.54464000E-03  2.68270000E+02
   2  5  5  6.66434000E-03  1.58332000E+03
   2  5  6  1.28614000E-02  1.65685000E+03
   2  5  7  2.46341000E-02  1.66919000E+03
   2  5  8  1.84546000E-02  1.80037000E+03
   2  5  9  2.67984000E-02  1.80260000E+03
   2  5 10  1.85161000E-03  1.91576000E+03
   2  5 11  1.72159000E-03  1.93540000E+03
   2  5 12  3.28609000E-03  1.93697000E+03
   2  5 13  1.20919000E-04  1.96387000E+03
   2  5 14  1.74712000E-04  1.96398000E+03
   2  6  6  1.21451000E-04  1.73038000E+03
   2  6  7  5.49190000E-04  1.74272000E+03
   2  6  8  3.60084000E-04  1.87390000E+03
   2  6  9  6.15028000E-03  1.87613000E+03
   2  6 10  1.49842000E-03  1.98929000E+03
   2  6 11  2.18397000E-05  2.00893000E+03
   2  6 12  7.03134000E-05  2.01050000E+03
   2  6 13  2.13067000E-06  2.03740000E+03
   2  6 14  3.08951000E-05  2.03751000E+03
   2  7  7  6.01403000E-04  1.75506000E+03
   2  7  8  5.57610000E-03  1.88624000E+03
   2  7  9  3.92178000E-03  1.88847000E+03
   2  7 10  2.87228000E-03  2.00163000E+03
   2  7 11  7.03139000E-05  2.02127000E+03
   2  7 12  1.31568000E-04  2.02284000E+03
   2  7 13  2.66329000E-05  2.04974000E+03
   2  7 14  1.91769000E-05  2.04985000E+03
   2  8  8  8.56018000E-04  2.01742000E+03
   2  8  9  3.62432000E-02  2.01965000E+03
   2  8 10  2.06304000E-03  2.13281000E+03
   2  8 11  6.33887000E-05  2.15245000E+03
   2  8 12  7.31354000E-04  2.15402000E+03
   2  8 13  1.11862000E-05  2.18092000E+03
   2  8 14  1.95490000E-04  2.18103000E+03
   2  9  9  1.01373000E-02  2.02188000E+03
   2  9 10  3.00293000E-03  2.13504000E+03
   2  9 11  7.75085000E-04  2.15468000E+03
   2  9 12  5.34286000E-04  2.15625000E+03
   2  9 13  1.94975000E-04  2.18315000E+03
   2  9 14  1.11865000E-04  2.18326000E+03
   2 10 10  1.24122000E-04  2.24820000E+03
   2 10 11  2.00810000E-04  2.26784000E+03
   2 10 12  3.83537000E-04  2.26941000E+03
   2 10 13  1.33164000E-05  2.29631000E+03
   2 10 14  1.97099000E-05  2.29642000E+03
   2 11 11  1.14318000E-06  2.28748000E+03
   2 11 12  9.71702000E-06  2.28905000E+03
   2 11 13  5.71605000E-07  2.31595000E+03
   2 11 14  4.00111000E-06  2.31606000E+03
   2 12 12  7.45752000E-06  2.29062000E+03
   2 12 13  3.72871000E-06  2.31752000E+03
   2 12 14  2.66326000E-06  2.31763000E+03
   3  5  0  3.12648000E-03  1.76096000E+03
   3  7  0  2.62458000E-05  1.85540000E+03
   3  8  0  2.48598000E-02  1.99585000E+03
   3 10  0  1.98628000E-04  2.11019000E+03
   3 12  0  7.70064000E-07  2.13230000E+03
   3 13  0  1.34319000E-04  2.15790000E+03
   3  5  5  1.75066000E-03  1.38812000E+03
   3  5  6  3.61776000E-02  1.46165000E+03
   3  5  7  3.34115000E-03  1.47399000E+03
   3  5  8  1.93261000E-03  1.60517000E+03
   3  5  9  5.07533000E-03  1.60740000E+03
   3  5 10  4.62227000E-04  1.72056000E+03
   3  5 11  3.61586000E-03  1.74020000E+03
   3  5 12  4.03987000E-04  1.74177000E+03
   3  5 13  9.09862000E-06  1.76867000E+03
   3  5 14  2.36571000E-05  1.76878000E+03
   3  6  6  3.39722000E-02  1.53518000E+03
   3  6  7  1.12874000E-01  1.54752000E+03
   3  6  8  5.63724000E-02  1.67870000E+03
   3  6  9  1.02538000E-01  1.68093000E+03
   3  6 10  5.84695000E-03  1.79409000E+03
   3  6 11  8.03275000E-03  1.81373000E+03
   3  6 12  1.47996000E-02  1.81530000E+03
   3  6 13  3.67594000E-04  1.84220000E+03
   3  6 14  6.66044000E-04  1.84231000E+03
   3  7  7  3.07722000E-03  1.55986000E+03
   3  7  8  6.97989000E-02  1.69104000E+03
   3  7  9  9.63231000E-03  1.69327000E+03
   3  7 10  4.73143000E-04  1.80643000E+03
   3  7 11  1.16397000E-02  1.82607000E+03
   3  7 12  6.96991000E-04  1.82764000E+03
   3  7 13  4.14904000E-04  1.85454000E+03
   3  7 14  5.27736000E-05  1.85465000E+03
   3  8  8  6.02143000E-02  1.82222000E+03
   3  8  9  2.66590000E-01  1.82445000E+03
   3  8 10  3.25737000E-04  1.93761000E+03
   3  8 11  5.79045000E-03  1.95725000E+03
   3  8 12  8.76422000E-03  1.95882000E+03
   3  8 13  7.09704000E-04  1.98572000E+03
   3  8 14  1.64143000E-03  1.98583000E+03
   3  9  9  1.26563000E-02  1.82668000E+03
   3  9 10  7.27884000E-04  1.93984000E+03
   3  9 11  9.70445000E-03  1.95948000E+03
   3  9 12  1.12103000E-03  1.96105000E+03
   3  9 13  1.42661000E-03  1.98795000E+03
   3  9 14  1.45578000E-04  1.98806000E+03
   3 10 10  3.21271000E-05  2.05300000E+03
   3 10 11  6.08524000E-04  2.07264000E+03
   3 10 12  5.85845000E-05  2.07421000E+03
   3 10 13  1.88983000E-06  2.10111000E+03
   3 10 14  3.77956000E-06  2.10122000E+03
   3 11 11  4.62220000E-04  2.09228000E+03
   3 11 12  1.52675000E-03  2.09385000E+03
   3 11 13  3.82142000E-05  2.12075000E+03
   3 11 14  6.36904000E-05  2.12086000E+03
   3 12 12  6.30867000E-05  2.09542000E+03
   3 12 13  8.31595000E-05  2.12232000E+03
   3 12 14  8.60265000E-06  2.12243000E+03
   4  5  0  4.29921000E-03  1.68539000E+03
   4  6  0  1.66400000E-05  1.76860000E+03
   4  7  0  1.57890000E-05  1.78030000E+03
   4  8  0  2.43130000E-03  1.92048000E+03
   4  9  0  2.21780000E-02  1.92256000E+03
   4 10  0  1.87340000E-04  2.03443000E+03
   4 11  0  3.81561000E-07  2.05395000E+03
   4 12  0  3.65820000E-07  2.05716000E+03
   4 13  0  1.30290000E-05  2.08277000E+03
   4 14  0  1.15260000E-04  2.07637000E+03
   4  5  5  2.03256000E-03  1.30992000E+03
   4  5  6  1.52674000E-03  1.38345000E+03
   4  5  7  4.04447000E-02  1.39579000E+03
   4  5  8  3.69969000E-03  1.52697000E+03
   4  5  9  3.94202000E-03  1.52920000E+03
   4  5 10  5.36502000E-04  1.64236000E+03
   4  5 11  1.80761000E-04  1.66200000E+03
   4  5 12  4.06314000E-03  1.66357000E+03
   4  5 13  1.73073000E-05  1.69047000E+03
   4  5 14  1.73073000E-05  1.69058000E+03
   4  6  6  5.65359000E-04  1.45698000E+03
   4  6  7  6.56591000E-02  1.46932000E+03
   4  6  8  4.28254000E-03  1.60050000E+03
   4  6  9  3.90352000E-02  1.60273000E+03
   4  6 10  2.11542000E-04  1.71589000E+03
   4  6 11  1.30763000E-04  1.73553000E+03
   4  6 12  6.77679000E-03  1.73710000E+03
   4  6 13  2.69225000E-05  1.76400000E+03
   4  6 14  2.24991000E-04  1.76411000E+03
   4  7  7  9.51393000E-02  1.48166000E+03
   4  7  8  8.84111000E-02  1.61284000E+03
   4  7  9  1.35308000E-01  1.61507000E+03
   4  7 10  6.48781000E-03  1.72823000E+03
   4  7 11  8.53019000E-03  1.74787000E+03
   4  7 12  2.22979000E-02  1.74944000E+03
   4  7 13  5.63405000E-04  1.77634000E+03
   4  7 14  8.57612000E-04  1.77645000E+03
   4  8  8  1.18045000E-02  1.74402000E+03
   4  8  9  2.31866000E-01  1.74625000E+03
   4  8 10  5.51873000E-04  1.85941000E+03
   4  8 11  5.53790000E-04  1.87905000E+03
   4  8 12  8.66868000E-03  1.88062000E+03
   4  8 13  1.40370000E-04  1.90752000E+03
   4  8 14  1.25573000E-03  1.90763000E+03
   4  9  9  1.57703000E-01  1.74848000E+03
   4  9 10  6.19207000E-04  1.86164000E+03
   4  9 11  4.81135000E-03  1.88128000E+03
   4  9 12  1.43644000E-02  1.88285000E+03
   4  9 13  1.38651000E-03  1.90975000E+03
   4  9 14  1.81905000E-03  1.90986000E+03
   4 10 10  3.53713000E-05  1.97480000E+03
   4 10 11  2.55456000E-05  1.99444000E+03
   4 10 12  6.66154000E-04  1.99601000E+03
   4 10 13  1.96512000E-06  2.02291000E+03
   4 10 14  1.96512000E-06  2.02302000E+03
   4 11 11  7.69157000E-06  2.01408000E+03
   4 11 12  8.80744000E-04  2.01565000E+03
   4 11 13  3.84594000E-06  2.04255000E+03
   4 11 14  2.88443000E-05  2.04266000E+03
   4 12 12  1.28266000E-03  2.01722000E+03
   4 12 13  5.57665000E-05  2.04412000E+03
   4 12 14  9.03810000E-05  2.04423000E+03
   5 11  0  3.70196000E-05  3.52080000E+02
   5 12  0  5.76323000E-05  3.53650000E+02
   5  8 10  4.55068000E-02  1.63700000E+02
   5  8 11  7.00534000E-03  1.83340000E+02
   5  8 12  5.51493000E-03  1.84910000E+02
   5  8 13  2.32815000E-04  2.11810000E+02
   5  8 14  2.19751000E-04  2.11920000E+02
   5  9 10  6.74316000E-02  1.65930000E+02
   5  9 11  2.45950000E-03  1.85570000E+02
   5  9 12  1.45204000E-02  1.87140000E+02
   5  9 13  2.31103000E-04  2.14040000E+02
   5  9 14  4.37089000E-04  2.14150000E+02
   5 10 10  1.94132000E-02  2.79090000E+02
   5 10 11  2.60629000E-02  2.98730000E+02
   5 10 12  4.95672000E-02  3.00300000E+02
   5 10 13  1.88046000E-03  3.27200000E+02
   5 10 14  2.74199000E-03  3.27310000E+02
   5 11 11  1.27649000E-03  3.18370000E+02
   5 11 12  3.29939000E-03  3.19940000E+02
   5 11 13  8.04038000E-05  3.46840000E+02
   5 11 14  2.76410000E-05  3.46950000E+02
   5 12 12  4.13104000E-03  3.21510000E+02
   5 12 13  6.28209000E-05  3.48410000E+02
   5 12 14  1.78414000E-04  3.48520000E+02
   6  8  0  2.93080000E-04  1.52200000E+02
   6 10  0  7.40460000E-05  2.67000000E+02
   6 13  0  4.59550000E-06  3.07020000E+02
   6  8 11  1.75268000E-01  1.09810000E+02
   6  8 12  2.71117000E-01  1.11380000E+02
   6  8 13  1.99688000E-03  1.38280000E+02
   6  8 14  1.27539000E-03  1.38390000E+02
   6  9 11  2.54300000E-01  1.12040000E+02
   6  9 12  2.64142000E-02  1.13610000E+02
   6  9 13  8.11283000E-04  1.40510000E+02
   6  9 14  3.18018000E-04  1.40620000E+02
   6 10 10  5.10000000E-04  2.05560000E+02
   6 10 11  9.15427000E-03  2.25200000E+02
   6 10 12  1.31576000E-03  2.26770000E+02
   6 10 13  3.25342000E-05  2.53670000E+02
   6 10 14  4.49721000E-05  2.53780000E+02
   6 11 11  6.16576000E-03  2.44840000E+02
   6 11 12  2.00575000E-02  2.46410000E+02
   6 11 13  6.52271000E-04  2.73310000E+02
   6 11 14  1.10876000E-03  2.73420000E+02
   6 12 12  5.19217000E-04  2.47980000E+02
   6 12 13  1.06001000E-04  2.74880000E+02
   6 12 14  5.51667000E-05  2.74990000E+02
   6 13 14  2.16348000E-06  3.01890000E+02
   7  8  0  2.37891000E-05  1.43400000E+02
   7  9  0  2.27841000E-04  1.43400000E+02
   7 10  0  8.36904000E-05  2.56000000E+02
   7 13  0  5.66922000E-07  2.94680000E+02
   7 14  0  4.67192000E-06  2.94790000E+02
   7  8 13  4.74284000E-04  1.25940000E+02
   7  8 14  4.80357000E-04  1.26050000E+02
   7  9 12  3.69582000E-01  1.01270000E+02
   7  9 13  9.56647000E-04  1.28170000E+02
   7  9 14  2.74216000E-03  1.28280000E+02
   7 10 10  4.78405000E-04  1.93220000E+02
   7 10 11  7.69366000E-04  2.12860000E+02
   7 10 12  1.28567000E-02  2.14430000E+02
   7 10 13  4.06891000E-05  2.41330000E+02
   7 10 14  5.79499000E-05  2.41440000E+02
   7 11 11  1.60584000E-04  2.32500000E+02
   7 11 12  1.33782000E-02  2.34070000E+02
   7 11 13  2.50097000E-05  2.60970000E+02
   7 11 14  9.60894000E-05  2.61080000E+02
   7 12 12  1.82113000E-02  2.35640000E+02
   7 12 13  8.82996000E-04  2.62540000E+02
   7 12 14  1.21476000E-03  2.62650000E+02
   7 13 14  2.01411000E-06  2.89550000E+02
   8 11  0  3.67952000E-05  1.32800000E+02
   8 12  0  6.71234000E-06  1.32800000E+02
   8 10 13  4.19798000E-02  1.10150000E+02
   8 10 14  9.41734000E-03  1.10260000E+02
   8 11 11  9.57929000E-03  1.01320000E+02
   8 11 12  1.04387000E-01  1.02890000E+02
   8 11 13  3.68388000E-02  1.29790000E+02
   8 11 14  5.85695000E-03  1.29900000E+02
   8 12 12  4.52863000E-02  1.04460000E+02
   8 12 13  6.05219000E-02  1.31360000E+02
   8 12 14  3.80882000E-03  1.31470000E+02
   8 13 14  3.55773000E-03  1.58370000E+02
   9 12  0  3.70869000E-05  1.32800000E+02
   9 10 13  6.16681000E-03  1.07920000E+02
   9 10 14  4.12634000E-02  1.08030000E+02
   9 11 12  7.60186000E-02  1.00660000E+02
   9 11 13  1.14200000E-03  1.27560000E+02
   9 11 14  2.98061000E-02  1.27670000E+02
   9 12 12  7.12277000E-02  1.02230000E+02
   9 12 13  7.20653000E-03  1.29130000E+02
   9 12 14  9.00162000E-02  1.29240000E+02
   9 13 14  2.24593000E-03  1.56140000E+02
   1  2 30  1.26412000E-04  1.46451000E+04
   1  3 30  5.71733000E-05  1.48403000E+04
   1  4 30  9.09842000E-05  1.49185000E+04
   1  5 30  1.93243000E-05  1.66142000E+04
   1  6 30  9.58739000E-06  1.66877000E+04
   1  7 30  1.43147000E-05  1.67001000E+04
   1  8 30  8.05183000E-07  1.68313000E+04
   1  9 30  8.20232000E-07  1.68335000E+04
   1 10 30  2.83164000E-06  1.69467000E+04
   1 11 30  1.45617000E-06  1.69663000E+04
   1 12 30  1.45657000E-06  1.69679000E+04
   2  3 30  8.40448000E-02  1.95200000E+02
   2  4 30  3.76102000E-03  2.73400000E+02
   2  5 30  2.29060000E-04  1.96911000E+03
   2  6 30  1.80574000E-04  2.04264000E+03
   2  7 30  3.45713000E-04  2.05498000E+03
   2  8 30  2.47166000E-04  2.18616000E+03
   2  9 30  3.59559000E-04  2.18839000E+03
   2 10 30  3.03621000E-05  2.30155000E+03
   2 11 30  2.57220000E-05  2.32119000E+03
   2 12 30  4.63424000E-05  2.32276000E+03
   2 13 30  1.59810000E-06  2.34966000E+03
   2 14 30  2.13069000E-06  2.34977000E+03
   3 30  0  3.03038000E-09  2.15970000E+03
   3  4 30  1.13759000E-01  7.82000000E+01
   3  5 30  5.64124000E-05  1.77391000E+03
   3  6 30  7.36997000E-04  1.84744000E+03
   3  7 30  5.82330000E-05  1.85978000E+03
   3  8 30  4.18549000E-05  1.99096000E+03
   3  9 30  9.09859000E-05  1.99319000E+03
   3 10 30  7.55912000E-06  2.10635000E+03
   3 11 30  7.46060000E-05  2.12599000E+03
   3 12 30  1.14699000E-05  2.12756000E+03
   4  5 30  6.53801000E-05  1.69571000E+03
   4  6 30  2.69225000E-05  1.76924000E+03
   4  7 30  8.15289000E-04  1.78158000E+03
   4  8 30  6.92242000E-05  1.91276000E+03
   4  9 30  7.69190000E-05  1.91499000E+03
   4 10 30  7.85999000E-06  2.02815000E+03
   4 11 30  3.84594000E-06  2.04779000E+03
   4 12 30  8.26917000E-05  2.04936000E+03
   5 30  0  5.29541000E-05  3.85790000E+02
   5  6 30  2.60418000E-01  7.35300000E+01
   5  7 30  4.39656000E-01  8.58700000E+01
   5  8 30  2.04547000E-02  2.17050000E+02
   5  9 30  1.96795000E-02  2.19280000E+02
   5 10 30  3.06342000E-03  3.32440000E+02
   5 11 30  1.39462000E-03  3.52080000E+02
   5 12 30  2.65857000E-03  3.53650000E+02
   5 13 30  1.00499000E-04  3.80550000E+02
   5 14 30  1.45739000E-04  3.80660000E+02
   6  7 30  1.24530000E-02  1.23400000E+01
   6  8 30  1.85622000E-01  1.43520000E+02
   6  9 30  2.91961000E-02  1.45750000E+02
   6 10 30  7.84647000E-05  2.58910000E+02
   6 11 30  9.36748000E-04  2.78550000E+02
   6 12 30  1.09255000E-04  2.80120000E+02
   6 13 30  3.24522000E-06  3.07020000E+02
   6 14 30  3.24520000E-06  3.07130000E+02
   7  8 30  2.43767000E-01  1.31180000E+02
   7  9 30  3.32222000E-01  1.33410000E+02
   7 10 30  7.39784000E-05  2.46570000E+02
   7 11 30  6.31814000E-05  2.66210000E+02
   7 12 30  1.11804000E-03  2.67780000E+02
   7 13 30  2.01411000E-06  2.94680000E+02
   7 14 30  4.02802000E-06  2.94790000E+02
   8 10 30  6.53387000E-01  1.15390000E+02
   8 11 30  1.07288000E-02  1.35030000E+02
   8 12 30  1.09236000E-02  1.36600000E+02
   8 13 30  3.26471000E-03  1.63500000E+02
   8 14 30  4.18562000E-04  1.63610000E+02
   9 10 30  6.39388000E-01  1.13160000E+02
   9 11 30  1.09630000E-02  1.32800000E+02
   9 12 30  2.11691000E-02  1.34370000E+02
   9 13 30  2.66458000E-04  1.61270000E+02
   9 14 30  3.08349000E-03  1.61380000E+02
 *** RELAX:  Z = 13,  NO. OF SHELLS =  6,  NO. OF TRANSITIONS =  34
   1 1s1/2 2  1.55800000E+03
   2 2s1/2 2  1.18000000E+02
   3 2p1/2 2  7.30000000E+01
   4 2p3/2 4  7.30000000E+01
   5 3s1/2 2  6.00000000E+00
   6 3p1/2 1  6.00000000E+00
   1  3  0  1.23699000E-02  1.48630000E+03
   1  4  0  2.45528000E-02  1.48671000E+03
   1  6  0  7.55854000E-05  1.55757000E+03
   1  7  0  1.50039000E-04  1.55757000E+03
   1  2  2  7.83944000E-02  1.31180000E+03
   1  2  3  8.32180000E-02  1.34965000E+03
   1  2  4  1.62725000E-01  1.35012000E+03
   1  2  5  1.35884000E-02  1.42069000E+03
   1  2  6  8.96794000E-04  1.42597000E+03
   1  2  7  1.76485000E-03  1.42598000E+03
   1  3  3  1.42920000E-02  1.38750000E+03
   1  3  4  3.66942000E-01  1.38797000E+03
   1  3  5  6.49294000E-03  1.45854000E+03
   1  3  6  3.01318000E-04  1.46382000E+03
   1  3  7  3.65883000E-03  1.46383000E+03
   1  4  4  2.09226000E-01  1.38844000E+03
   1  4  5  1.27063000E-02  1.45901000E+03
   1  4  6  3.65189000E-03  1.46429000E+03
   1  4  7  4.20421000E-03  1.46430000E+03
   1  5  5  5.81139000E-04  1.52958000E+03
   1  5  6  7.17440000E-05  1.53486000E+03
   1  5  7  1.36311000E-04  1.53487000E+03
   2  6  0  2.07691000E-06  1.22300000E+02
   2  7  0  4.02982000E-06  1.14180000E+02
   2  5  6  2.61944000E-03  1.04010000E+02
   2  5  7  5.21749000E-03  1.04020000E+02
   2 30  0  2.49536000E-04  1.19050000E+02
   2  3 30  3.29551000E-01  3.78500000E+01
   2  4 30  6.51103000E-01  3.83200000E+01
   2  5 30  1.12532000E-02  1.08890000E+02
   3 30  0  1.60533000E-05  8.12000000E+01
   3  5 30  9.99984000E-01  7.10400000E+01
   4 30  0  1.50001000E-05  8.07300000E+01
   4  5 30  9.99985000E-01  7.05700000E+01
 *** RELAX:  Z =  8,  NO. OF SHELLS =  4,  NO. OF TRANSITIONS =   8
   1 1s1/2 2  5.43000000E+02
   2 2s1/2 2  2.40000000E+01
   3 2p1/2 2  1.40000000E+01
   4 2p3/2 2  1.40000000E+01
   1  3  0  1.90768000E-03  5.23090000E+02
   1  4  0  3.80027000E-03  5.23130000E+02
   1  2  2  1.78644000E-01  4.78820000E+02
   1  2  3  1.16224000E-01  4.93860000E+02
   1  2  4  2.30418000E-01  4.93900000E+02
   1  3  3  1.10822000E-02  5.08900000E+02
   1  3  4  2.91115000E-01  5.08940000E+02
   1  4  4  1.66809000E-01  5.08980000E+02
 *** Electron scaled bremss x-section,  ZEQ = 1.75727E+01,  NDATA =  57
 1.00E+03 4.35826E+01 4.41693E+01 4.47450E+01 4.53015E+01 4.58412E+01
          4.68802E+01 4.78592E+01 4.87767E+01 4.96320E+01 5.04288E+01
          5.11752E+01 5.18715E+01 5.25185E+01 5.31229E+01 5.37024E+01
          5.42720E+01 5.48263E+01 5.53578E+01 5.58639E+01 5.63690E+01
          5.68987E+01 5.71719E+01 5.74580E+01 5.77091E+01 5.80396E+01
          5.81429E+01 5.82080E+01 5.82140E+01 5.82224E+01 5.82230E+01
          5.82256E+01 5.82314E+01                                     4.485E+01
 1.50E+03 5.40230E+01 5.46516E+01 5.52636E+01 5.58465E+01 5.64041E+01
          5.74599E+01 5.84264E+01 5.93017E+01 6.00889E+01 6.07991E+01
          6.14488E+01 6.20407E+01 6.25771E+01 6.30671E+01 6.35362E+01
          6.40062E+01 6.44724E+01 6.49254E+01 6.53653E+01 6.58304E+01
          6.63568E+01 6.66244E+01 6.68501E+01 6.69932E+01 6.72176E+01
          6.73021E+01 6.73418E+01 6.73438E+01 6.73506E+01 6.73507E+01
          6.73522E+01 6.74116E+01                                     5.353E+01
 2.00E+03 6.23154E+01 6.30358E+01 6.37245E+01 6.43577E+01 6.49422E+01
          6.60011E+01 6.69130E+01 6.76949E+01 6.83596E+01 6.89282E+01
          6.94306E+01 6.98731E+01 7.02583E+01 7.06009E+01 7.09416E+01
          7.13148E+01 7.17119E+01 7.21043E+01 7.24737E+01 7.28620E+01
          7.32890E+01 7.34915E+01 7.36800E+01 7.38201E+01 7.39855E+01
          7.40318E+01 7.40649E+01 7.40695E+01 7.40729E+01 7.40726E+01
          7.40729E+01 7.41202E+01                                     6.023E+01
 3.00E+03 7.52124E+01 7.61055E+01 7.69353E+01 7.76540E+01 7.82750E+01
          7.92986E+01 8.00544E+01 8.06041E+01 8.09808E+01 8.12320E+01
          8.14208E+01 8.15647E+01 8.16724E+01 8.17579E+01 8.18441E+01
          8.19537E+01 8.20879E+01 8.22441E+01 8.24225E+01 8.26401E+01
          8.29147E+01 8.30657E+01 8.31961E+01 8.32755E+01 8.33684E+01
          8.33938E+01 8.34112E+01 8.34129E+01 8.34152E+01 8.34154E+01
          8.34161E+01 8.34066E+01                                     7.020E+01
 4.00E+03 8.51656E+01 8.62177E+01 8.71688E+01 8.79423E+01 8.85605E+01
          8.94604E+01 8.99862E+01 9.02748E+01 9.03762E+01 9.03429E+01
          9.02439E+01 9.01018E+01 8.99345E+01 8.97591E+01 8.95863E+01
          8.94314E+01 8.93057E+01 8.92276E+01 8.92145E+01 8.92588E+01
          8.93557E+01 8.94264E+01 8.95000E+01 8.95524E+01 8.95863E+01
          8.95955E+01 8.96036E+01 8.96040E+01 8.96048E+01 8.96061E+01
          8.96048E+01 8.95463E+01                                     7.746E+01
 5.00E+03 9.32423E+01 9.44266E+01 9.54753E+01 9.62857E+01 9.68879E+01
          9.76474E+01 9.79347E+01 9.79601E+01 9.77913E+01 9.74842E+01
          9.71089E+01 9.66880E+01 9.62416E+01 9.57951E+01 9.53718E+01
          9.49973E+01 9.46753E+01 9.44026E+01 9.41795E+01 9.40176E+01
          9.39408E+01 9.39431E+01 9.39596E+01 9.39739E+01 9.39619E+01
          9.39575E+01 9.39574E+01 9.39567E+01 9.39565E+01 9.39585E+01
          9.39557E+01 9.38720E+01                                     8.308E+01
 6.00E+03 1.00259E+02 1.01311E+02 1.02254E+02 1.03003E+02 1.03581E+02
          1.04347E+02 1.04609E+02 1.04453E+02 1.03967E+02 1.03283E+02
          1.02565E+02 1.01852E+02 1.01152E+02 1.00481E+02 9.98629E+01
          9.93180E+01 9.88376E+01 9.83861E+01 9.79423E+01 9.75638E+01
          9.73276E+01 9.72706E+01 9.72298E+01 9.71974E+01 9.71396E+01
          9.71270E+01 9.71190E+01 9.71171E+01 9.71155E+01 9.71167E+01
          9.71140E+01 9.70189E+01                                     8.756E+01
 8.00E+03 1.11390E+02 1.12517E+02 1.13484E+02 1.14174E+02 1.14623E+02
          1.15003E+02 1.14775E+02 1.14115E+02 1.13132E+02 1.11967E+02
          1.10789E+02 1.09641E+02 1.08527E+02 1.07460E+02 1.06460E+02
          1.05544E+02 1.04705E+02 1.03908E+02 1.03134E+02 1.02433E+02
          1.01891E+02 1.01697E+02 1.01530E+02 1.01408E+02 1.01264E+02
          1.01231E+02 1.01207E+02 1.01203E+02 1.01200E+02 1.01201E+02
          1.01202E+02 1.01112E+02                                     9.433E+01
 1.00E+04 1.20282E+02 1.21348E+02 1.22232E+02 1.22796E+02 1.23085E+02
          1.23089E+02 1.22427E+02 1.21309E+02 1.19862E+02 1.18245E+02
          1.16651E+02 1.15120E+02 1.13652E+02 1.12256E+02 1.10946E+02
          1.09733E+02 1.08605E+02 1.07520E+02 1.06451E+02 1.05468E+02
          1.04669E+02 1.04351E+02 1.04058E+02 1.03837E+02 1.03615E+02
          1.03563E+02 1.03523E+02 1.03517E+02 1.03512E+02 1.03512E+02
          1.03512E+02 1.03465E+02                                     9.921E+01
 1.50E+04 1.36287E+02 1.37488E+02 1.38354E+02 1.38634E+02 1.38428E+02
          1.37100E+02 1.34974E+02 1.32673E+02 1.30328E+02 1.27988E+02
          1.25712E+02 1.23498E+02 1.21361E+02 1.19304E+02 1.17349E+02
          1.15505E+02 1.13768E+02 1.12116E+02 1.10538E+02 1.09075E+02
          1.07756E+02 1.07141E+02 1.06556E+02 1.06129E+02 1.05739E+02
          1.05646E+02 1.05571E+02 1.05563E+02 1.05555E+02 1.05553E+02
          1.05554E+02 1.05628E+02                                     1.069E+02
 2.00E+04 1.49303E+02 1.49349E+02 1.49168E+02 1.48593E+02 1.47706E+02
          1.45389E+02 1.42559E+02 1.39584E+02 1.36564E+02 1.33567E+02
          1.30669E+02 1.27880E+02 1.25211E+02 1.22648E+02 1.20214E+02
          1.17903E+02 1.15718E+02 1.13647E+02 1.11693E+02 1.09901E+02
          1.08262E+02 1.07470E+02 1.06747E+02 1.06227E+02 1.05539E+02
          1.05293E+02 1.05275E+02 1.05298E+02 1.05279E+02 1.05267E+02
          1.05280E+02 1.05445E+02                                     1.114E+02
 3.00E+04 1.64216E+02 1.63826E+02 1.63152E+02 1.61989E+02 1.60449E+02
          1.56757E+02 1.52450E+02 1.47896E+02 1.43280E+02 1.38804E+02
