**** COMMENT ****

**** INPUTS ****
kVp [kV] hvMIN [keV] Dhv [keV]
10  1  0.1
Angle [deg.]
30
t_AIR t_BE t_AL t_CU t_SN t_W t_Ta t_Wa [mm]
200  0  0.000015  0  0  0  0  0
Nf P
0.68  0.33
****CALCULATED OUTPUTS ****
Brem[uGy/mAs@1m] Char[uGy/mAs@1m]
541.0099  0
HVL1[cm AL] HVL2[cm AL] HVL1[cmCu] HVL2[cmCu] MeanE[keV] EffEAl[keV] EffECu[keV]
0.0014243  0.0020456  0.000404  0.0005318  6.295705  5.163562  4.990467
**** CALCULATED SPECTRUM ****
Energy[keV]  N[keV cm^2 mAs]^-1 @ 1 meter
1  1.431151e-30
1.1  2.104911e-27
1.2  3.122068e-24
1.3  4.674328e-21
1.4  7.040822e-18
1.5  1.070783e-14
1.6  1.633350e-11
1.7  2.510689e-8
1.8  0.0000387
1.9  0.0599428
2  93.04329
2.1  216.2086
2.2  503.0697
2.3  1176.446
2.4  2753.722
2.5  6474.904
2.6  15234.3
2.7  35992.87
2.8  85124.91
2.9  201846.2
3  479008
3.1  566106.7
3.2  670983.9
3.3  794977.4
3.4  944443.9
3.5  1.123193e+6
3.6  1.334859e+6
3.7  1.587899e+6
3.8  1.893514e+6
3.9  2.259665e+6
4  2.695621e+6
4.1  2.844175e+6
4.2  3.009131e+6
4.3  3.185386e+6
4.4  3.368192e+6
4.5  3.568831e+6
4.6  3.778855e+6
4.7  3.998428e+6
4.8  4.241421e+6
4.9  4.492786e+6
5  4.770839e+6
5.1  4.789463e+6
5.2  4.819996e+6
5.3  4.843005e+6
5.4  4.875491e+6
5.5  4.899881e+6
5.6  4.936353e+6
5.7  4.959085e+6
5.8  4.996630e+6
5.9  5.019287e+6
6  5.056965e+6
6.1  4.970836e+6
6.2  4.900901e+6
6.3  4.815605e+6
6.4  4.743521e+6
6.5  4.661625e+6
6.6  4.590054e+6
6.7  4.508028e+6
6.8  4.438862e+6
6.9  4.363135e+6
7  4.283637e+6
7.1  4.165802e+6
7.2  4.045887e+6
7.3  3.920313e+6
7.4  3.809225e+6
7.5  3.687487e+6
7.6  3.577514e+6
7.7  3.456345e+6
7.8  3.346978e+6
7.9  3.236066e+6
8  3.116455e+6
8.1  2.990067e+6
8.2  2.858402e+6
8.3  2.730278e+6
8.4  2.596394e+6
8.5  2.471178e+6
8.6  2.336277e+6
8.7  2.198134e+6
8.8  2.074705e+6
8.9  1.946811e+6
9  1.797198e+6
9.1  1.662896e+6
9.2  1.530329e+6
9.3  1.391302e+6
9.4  1.253989e+6
9.5  1.098362e+6
9.6  947671.6
9.7  790749.5
9.8  638681.5
9.9  317584.9
10  0
