**** COMMENT ****

**** INPUTS ****
kVp [kV] hvMIN [keV] Dhv [keV]
20  2  0.1
Angle [deg.]
30
t_AIR t_BE t_AL t_CU t_SN t_W t_Ta t_Wa [mm]
200  0  0.000015  0  0  0  0  0
Nf P
0.68  0.33
****CALCULATED OUTPUTS ****
Brem[uGy/mAs@1m] Char[uGy/mAs@1m]
1388.762  0
HVL1[cm AL] HVL2[cm AL] HVL1[cmCu] HVL2[cmCu] MeanE[keV] EffEAl[keV] EffECu[keV]
0.002317  0.0041342  0.0004772  0.0006042  9.344175  6.102659  5.376941
**** CALCULATED SPECTRUM ****
Energy[keV]  N[keV cm^2 mAs]^-1 @ 1 meter
2  79.50223
2.1  188.6931
2.2  450.1152
2.3  1078.977
2.4  2598.935
2.5  6286.244
2.6  15281.35
2.7  37330.23
2.8  91650.4
2.9  226014.5
3  560479.9
3.1  679453.1
3.2  825576.1
3.3  1.004628e+6
3.4  1.225583e+6
3.5  1.498385e+6
3.6  1.837483e+6
3.7  2.252332e+6
3.8  2.770043e+6
3.9  3.413906e+6
4  4.216245e+6
4.1  4.538277e+6
4.2  4.891741e+6
4.3  5.278091e+6
4.4  5.700544e+6
4.5  6.157814e+6
4.6  6.660248e+6
4.7  7.210137e+6
4.8  7.809442e+6
4.9  8.465077e+6
5  9.183347e+6
5.1  9.382340e+6
5.2  9.591543e+6
5.3  9.803672e+6
5.4  1.002988e+7
5.5  1.026705e+7
5.6  1.051550e+7
5.7  1.076723e+7
5.8  1.103454e+7
5.9  1.131407e+7
6  1.160624e+7
6.1  1.160812e+7
6.2  1.161910e+7
6.3  1.163485e+7
6.4  1.165525e+7
6.5  1.167139e+7
6.6  1.169613e+7
6.7  1.172520e+7
6.8  1.176555e+7
6.9  1.178699e+7
7  1.182375e+7
7.1  1.172771e+7
7.2  1.163199e+7
7.3  1.154018e+7
7.4  1.145253e+7
7.5  1.136886e+7
7.6  1.128901e+7
7.7  1.120431e+7
7.8  1.112715e+7
7.9  1.105344e+7
8  1.098914e+7
8.1  1.084322e+7
8.2  1.071160e+7
8.3  1.058413e+7
8.4  1.045123e+7
8.5  1.033341e+7
8.6  1.021366e+7
8.7  1.009751e+7
8.8  9.984833e+6
8.9  9.868124e+6
9  9.758302e+6
9.1  9.618426e+6
9.2  9.479009e+6
9.3  9.343125e+6
9.4  9.210950e+6
9.5  9.082340e+6
9.6  8.957161e+6
9.7  8.828392e+6
9.8  8.706185e+6
9.9  8.587141e+6
10  8.471143e+6
10.1  8.282754e+6
10.2  8.103369e+6
10.3  7.929591e+6
10.4  7.754265e+6
10.5  7.591941e+6
10.6  7.430700e+6
10.7  7.274374e+6
10.8  7.116406e+6
10.9  6.970084e+6
11  6.824594e+6
11.1  6.703174e+6
11.2  6.582364e+6
11.3  6.464405e+6
11.4  6.349461e+6
11.5  6.237429e+6
11.6  6.125787e+6
11.7  6.016514e+6
11.8  5.909965e+6
11.9  5.806051e+6
12  5.702361e+6
12.1  5.606115e+6
12.2  5.512082e+6
12.3  5.420193e+6
12.4  5.330381e+6
12.5  5.237549e+6
12.6  5.148981e+6
12.7  5.062383e+6
12.8  4.972806e+6
12.9  4.890209e+6
13  4.806756e+6
13.1  4.728137e+6
13.2  4.646381e+6
13.3  4.571017e+6
13.4  4.494618e+6
13.5  4.419755e+6
13.6  4.344288e+6
13.7  4.269895e+6
13.8  4.196971e+6
13.9  4.125476e+6
14  4.053301e+6
14.1  3.979407e+6
14.2  3.906994e+6
14.3  3.836021e+6
14.4  3.766448e+6
14.5  3.693609e+6
14.6  3.624200e+6
14.7  3.556140e+6
14.8  3.489395e+6
14.9  3.419247e+6
15  3.352426e+6
15.1  3.285624e+6
15.2  3.220119e+6
15.3  3.151186e+6
15.4  3.085560e+6
15.5  3.021196e+6
15.6  2.953796e+6
15.7  2.891365e+6
15.8  2.827933e+6
15.9  2.765700e+6
16  2.704635e+6
16.1  2.638979e+6
16.2  2.576603e+6
16.3  2.515421e+6
16.4  2.455403e+6
16.5  2.391247e+6
16.6  2.330361e+6
16.7  2.270626e+6
16.8  2.212013e+6
16.9  2.149067e+6
17  2.089413e+6
17.1  2.030452e+6
17.2  1.972609e+6
17.3  1.909974e+6
17.4  1.850719e+6
17.5  1.792583e+6
17.6  1.735539e+6
17.7  1.673208e+6
17.8  1.614346e+6
17.9  1.556586e+6
18  1.499903e+6
18.1  1.436743e+6
18.2  1.377553e+6
18.3  1.319483e+6
18.4  1.262506e+6
18.5  1.198848e+6
18.6  1.138998e+6
18.7  1.080275e+6
18.8  1.022653e+6
18.9  948851.5
19  884114.4
19.1  820530.5
19.2  758152.3
19.3  696055.6
19.4  632700.9
19.5  570547.2
19.6  509567.7
19.7  382305.1
19.8  252394
19.9  124977.4
20  0
