**** COMMENT ****

**** INPUTS ****
kVp [kV] hvMIN [keV] Dhv [keV]
30  3  0.1
Angle [deg.]
30
t_AIR t_BE t_AL t_CU t_SN t_W t_Ta t_Wa [mm]
200  0  0.000015  0  0  0  0  0
Nf P
0.68  0.33
****CALCULATED OUTPUTS ****
Brem[uGy/mAs@1m] Char[uGy/mAs@1m]
1909.582  0
HVL1[cm AL] HVL2[cm AL] HVL1[cmCu] HVL2[cmCu] MeanE[keV] EffEAl[keV] EffECu[keV]
0.0029111  0.0056171  0.0005245  0.000666  11.87382  6.655568  5.574496
**** CALCULATED SPECTRUM ****
Energy[keV]  N[keV cm^2 mAs]^-1 @ 1 meter
3  497542.9
3.1  610576.9
3.2  750432.4
3.3  925222.9
3.4  1.144374e+6
3.5  1.420062e+6
3.6  1.766173e+6
3.7  2.208881e+6
3.8  2.768801e+6
3.9  3.483610e+6
4  4.400047e+6
4.1  4.792421e+6
4.2  5.221757e+6
4.3  5.708015e+6
4.4  6.240631e+6
4.5  6.832102e+6
4.6  7.489587e+6
4.7  8.221206e+6
4.8  9.027718e+6
4.9  9.943012e+6
5  1.095388e+7
5.1  1.128962e+7
5.2  1.164401e+7
5.3  1.200630e+7
5.4  1.240148e+7
5.5  1.282532e+7
5.6  1.325962e+7
5.7  1.371742e+7
5.8  1.419997e+7
5.9  1.470856e+7
6  1.523203e+7
6.1  1.535665e+7
6.2  1.547545e+7
6.3  1.560192e+7
6.4  1.573606e+7
6.5  1.587785e+7
6.6  1.601489e+7
6.7  1.618040e+7
6.8  1.634050e+7
6.9  1.650836e+7
7  1.668403e+7
7.1  1.663718e+7
7.2  1.658338e+7
7.3  1.655477e+7
7.4  1.651843e+7
7.5  1.648694e+7
7.6  1.646013e+7
7.7  1.642506e+7
7.8  1.640851e+7
7.9  1.640230e+7
8  1.638850e+7
8.1  1.626380e+7
8.2  1.614388e+7
8.3  1.602853e+7
8.4  1.591775e+7
8.5  1.580661e+7
8.6  1.569964e+7
8.7  1.559671e+7
8.8  1.549767e+7
8.9  1.540237e+7
9  1.530072e+7
9.1  1.515359e+7
9.2  1.500088e+7
9.3  1.485246e+7
9.4  1.470815e+7
9.5  1.456782e+7
9.6  1.442221e+7
9.7  1.429468e+7
9.8  1.416178e+7
9.9  1.403241e+7
10  1.390645e+7
10.1  1.358026e+7
10.2  1.326487e+7
10.3  1.295663e+7
10.4  1.265862e+7
10.5  1.237041e+7
10.6  1.209159e+7
10.7  1.182178e+7
10.8  1.156045e+7
10.9  1.130481e+7
11  1.105729e+7
11.1  1.089002e+7
11.2  1.072680e+7
11.3  1.056098e+7
11.4  1.040618e+7
11.5  1.025732e+7
11.6  1.010648e+7
11.7  9.959162e+6
11.8  9.815261e+6
11.9  9.674666e+6
12  9.537094e+6
12.1  9.423474e+6
12.2  9.312236e+6
12.3  9.203310e+6
12.4  9.096629e+6
12.5  8.986826e+6
12.6  8.889541e+6
12.7  8.787165e+6
12.8  8.686843e+6
12.9  8.588517e+6
13  8.492131e+6
13.1  8.407348e+6
13.2  8.333710e+6
13.3  8.254877e+6
13.4  8.177522e+6
13.5  8.101606e+6
13.6  8.027092e+6
13.7  7.949268e+6
13.8  7.881874e+6
13.9  7.809417e+6
14  7.738256e+6
14.1  7.660389e+6
14.2  7.583906e+6
14.3  7.508773e+6
14.4  7.434713e+6
14.5  7.360258e+6
14.6  7.287091e+6
14.7  7.215180e+6
14.8  7.144495e+6
14.9  7.075003e+6
15  7.006416e+6
15.1  6.933317e+6
15.2  6.861449e+6
15.3  6.790783e+6
15.4  6.721289e+6
15.5  6.648941e+6
15.6  6.585440e+6
15.7  6.517535e+6
15.8  6.450731e+6
15.9  6.385001e+6
16  6.320320e+6
16.1  6.249130e+6
16.2  6.183232e+6
16.3  6.119417e+6
16.4  6.053539e+6
16.5  5.988707e+6
16.6  5.924899e+6
16.7  5.862091e+6
16.8  5.799979e+6
16.9  5.737520e+6
17  5.676026e+6
17.1  5.613148e+6
17.2  5.551250e+6
17.3  5.490312e+6
17.4  5.427221e+6
17.5  5.369305e+6
17.6  5.309500e+6
17.7  5.250605e+6
17.8  5.192601e+6
17.9  5.135469e+6
18  5.076215e+6
18.1  5.020453e+6
18.2  4.962901e+6
18.3  4.906216e+6
18.4  4.850380e+6
18.5  4.795374e+6
18.6  4.740899e+6
18.7  4.685831e+6
18.8  4.631576e+6
18.9  4.578116e+6
19  4.525436e+6
19.1  4.472546e+6
19.2  4.417690e+6
19.3  4.367308e+6
19.4  4.315251e+6
19.5  4.263950e+6
19.6  4.213392e+6
19.7  4.163561e+6
19.8  4.111806e+6
19.9  4.064229e+6
20  4.015018e+6
20.1  3.965810e+6
20.2  3.917309e+6
20.3  3.866641e+6
20.4  3.819812e+6
20.5  3.774144e+6
20.6  3.726905e+6
20.7  3.680332e+6
20.8  3.634413e+6
20.9  3.589135e+6
21  3.544184e+6
21.1  3.498130e+6
21.2  3.452725e+6
21.3  3.407957e+6
21.4  3.363814e+6
21.5  3.320283e+6
21.6  3.274943e+6
21.7  3.233203e+6
21.8  3.189968e+6
21.9  3.147327e+6
22  3.105270e+6
22.1  3.063438e+6
22.2  3.019829e+6
22.3  2.979640e+6
22.4  2.937992e+6
22.5  2.896915e+6
22.6  2.856399e+6
22.7  2.816433e+6
22.8  2.774708e+6
22.9  2.736257e+6
23  2.696370e+6
23.1  2.656798e+6
23.2  2.617762e+6
23.3  2.579255e+6
23.4  2.539007e+6
23.5  2.501900e+6
23.6  2.463388e+6
23.7  2.425394e+6
23.8  2.387907e+6
23.9  2.350921e+6
24  2.312188e+6
24.1  2.276288e+6
24.2  2.239004e+6
24.3  2.202218e+6
24.4  2.165923e+6
24.5  2.130110e+6
24.6  2.094418e+6
24.7  2.057736e+6
24.8  2.021542e+6
24.9  1.985826e+6
25  1.950582e+6
25.1  1.915711e+6
25.2  1.879073e+6
25.3  1.845110e+6
25.4  1.809770e+6
25.5  1.774896e+6
25.6  1.740480e+6
25.7  1.706515e+6
25.8  1.670747e+6
25.9  1.637448e+6
26  1.602761e+6
26.1  1.568467e+6
26.2  1.534623e+6
26.3  1.501222e+6
26.4  1.465969e+6
26.5  1.433029e+6
26.6  1.398684e+6
26.7  1.364788e+6
26.8  1.331334e+6
26.9  1.298314e+6
27  1.263373e+6
27.1  1.230511e+6
27.2  1.196216e+6
27.3  1.162369e+6
27.4  1.128962e+6
27.5  1.095989e+6
27.6  1.060829e+6
27.7  1.027807e+6
27.8  993308.1
27.9  959257.2
28  925647.3
28.1  889606.9
28.2  857142.2
28.3  821349.8
28.4  783909
28.5  746955.3
28.6  710481.2
28.7  674479.5
28.8  635706.6
28.9  599429.7
29  563624.6
29.1  528276.4
29.2  493387.3
29.3  458950.5
29.4  424959.1
29.5  355363.9
29.6  282404.5
29.7  210402.6
29.8  139343.9
29.9  69214.31
30  0
