**** COMMENT ****

**** INPUTS ****
kVp [kV] hvMIN [keV] Dhv [keV]
40  4  0.1
Angle [deg.]
30
t_AIR t_BE t_AL t_CU t_SN t_W t_Ta t_Wa [mm]
200  0  0.000015  0  0  0  0  0
Nf P
0.68  0.33
****CALCULATED OUTPUTS ****
Brem[uGy/mAs@1m] Char[uGy/mAs@1m]
2144.407  0
HVL1[cm AL] HVL2[cm AL] HVL1[cmCu] HVL2[cmCu] MeanE[keV] EffEAl[keV] EffECu[keV]
0.003675  0.0071268  0.0005871  0.0007301  14.32745  7.178302  5.786883
**** CALCULATED SPECTRUM ****
Energy[keV]  N[keV cm^2 mAs]^-1 @ 1 meter
4  4.141865e+6
4.1  4.549269e+6
4.2  4.997186e+6
4.3  5.493482e+6
4.4  6.056744e+6
4.5  6.689988e+6
4.6  7.403161e+6
4.7  8.207829e+6
4.8  9.117465e+6
4.9  1.015874e+7
5  1.132549e+7
5.1  1.173928e+7
5.2  1.219140e+7
5.3  1.267218e+7
5.4  1.318348e+7
5.5  1.372735e+7
5.6  1.430600e+7
5.7  1.493519e+7
5.8  1.558602e+7
5.9  1.626563e+7
6  1.700463e+7
6.1  1.722434e+7
6.2  1.745580e+7
6.3  1.769925e+7
6.4  1.795492e+7
6.5  1.823710e+7
6.6  1.851219e+7
6.7  1.878613e+7
6.8  1.908872e+7
6.9  1.940497e+7
7  1.973525e+7
7.1  1.976180e+7
7.2  1.981451e+7
7.3  1.984779e+7
7.4  1.988744e+7
7.5  1.991958e+7
7.6  1.997316e+7
7.7  2.003287e+7
7.8  2.009864e+7
7.9  2.017040e+7
8  2.024810e+7
8.1  2.017722e+7
8.2  2.009327e+7
8.3  2.000153e+7
8.4  1.992907e+7
8.5  1.986139e+7
8.6  1.979834e+7
8.7  1.973979e+7
8.8  1.968562e+7
8.9  1.964632e+7
9  1.959482e+7
9.1  1.943469e+7
9.2  1.929242e+7
9.3  1.915467e+7
9.4  1.902129e+7
9.5  1.889214e+7
9.6  1.876708e+7
9.7  1.865514e+7
9.8  1.853256e+7
9.9  1.840327e+7
10  1.828938e+7
10.1  1.778009e+7
10.2  1.729048e+7
10.3  1.681963e+7
10.4  1.636665e+7
10.5  1.593775e+7
10.6  1.551385e+7
10.7  1.509795e+7
10.8  1.470601e+7
10.9  1.432837e+7
11  1.396441e+7
11.1  1.375774e+7
11.2  1.356458e+7
11.3  1.336408e+7
11.4  1.316829e+7
11.5  1.297087e+7
11.6  1.278483e+7
11.7  1.260304e+7
11.8  1.242537e+7
11.9  1.225170e+7
12  1.208189e+7
12.1  1.196758e+7
12.2  1.184856e+7
12.3  1.172662e+7
12.4  1.161296e+7
12.5  1.150154e+7
12.6  1.139232e+7
12.7  1.128522e+7
12.8  1.118019e+7
12.9  1.108095e+7
13  1.097739e+7
13.1  1.090222e+7
13.2  1.083390e+7
13.3  1.076703e+7
13.4  1.070158e+7
13.5  1.063752e+7
13.6  1.058065e+7
13.7  1.051680e+7
13.8  1.045428e+7
13.9  1.038854e+7
14  1.032907e+7
14.1  1.025571e+7
14.2  1.018370e+7
14.3  1.011300e+7
14.4  1.004359e+7
14.5  9.978588e+6
14.6  9.909414e+6
14.7  9.837244e+6
14.8  9.770978e+6
14.9  9.705877e+6
15  9.641915e+6
15.1  9.571141e+6
15.2  9.501550e+6
15.3  9.435940e+6
15.4  9.362037e+6
15.5  9.294126e+6
15.6  9.227322e+6
15.7  9.161601e+6
15.8  9.096939e+6
15.9  9.033311e+6
16  8.975389e+6
16.1  8.903887e+6
16.2  8.833492e+6
16.3  8.760501e+6
16.4  8.692677e+6
16.5  8.625885e+6
16.6  8.560103e+6
16.7  8.495311e+6
16.8  8.431486e+6
16.9  8.371079e+6
17  8.307282e+6
17.1  8.235866e+6
17.2  8.169289e+6
17.3  8.103683e+6
17.4  8.039027e+6
17.5  7.975302e+6
17.6  7.912489e+6
17.7  7.852808e+6
17.8  7.786391e+6
17.9  7.724838e+6
18  7.664148e+6
18.1  7.600901e+6
18.2  7.538539e+6
18.3  7.477045e+6
18.4  7.416400e+6
18.5  7.358621e+6
18.6  7.297927e+6
18.7  7.235029e+6
18.8  7.176326e+6
18.9  7.118415e+6
19  7.061281e+6
19.1  7.002535e+6
19.2  6.944578e+6
19.3  6.889223e+6
19.4  6.831137e+6
19.5  6.770977e+6
19.6  6.714748e+6
19.7  6.659257e+6
19.8  6.604490e+6
19.9  6.550435e+6
20  6.497078e+6
20.1  6.444399e+6
20.2  6.389164e+6
20.3  6.331961e+6
20.4  6.278455e+6
20.5  6.225634e+6
20.6  6.173487e+6
20.7  6.122000e+6
20.8  6.071163e+6
20.9  6.022525e+6
21  5.971454e+6
21.1  5.917218e+6
21.2  5.866463e+6
21.3  5.816345e+6
21.4  5.766852e+6
21.5  5.717973e+6
21.6  5.669697e+6
21.7  5.623455e+6
21.8  5.572240e+6
21.9  5.524578e+6
22  5.477498e+6
22.1  5.429959e+6
22.2  5.383001e+6
22.3  5.336616e+6
22.4  5.290792e+6
22.5  5.246895e+6
22.6  5.200834e+6
22.7  5.153048e+6
22.8  5.108351e+6
22.9  5.064187e+6
23  5.020547e+6
23.1  4.976722e+6
23.2  4.933417e+6
23.3  4.891827e+6
23.4  4.848179e+6
23.5  4.802887e+6
23.6  4.760514e+6
23.7  4.718638e+6
23.8  4.677251e+6
23.9  4.636345e+6
24  4.595913e+6
24.1  4.556614e+6
24.2  4.515365e+6
24.3  4.472523e+6
24.4  4.432467e+6
24.5  4.392873e+6
24.6  4.353734e+6
24.7  4.315042e+6
24.8  4.276792e+6
24.9  4.239939e+6
25  4.201205e+6
25.1  4.160578e+6
25.2  4.122601e+6
25.3  4.085056e+6
25.4  4.047935e+6
25.5  4.011232e+6
25.6  3.974942e+6
25.7  3.940058e+6
25.8  3.903377e+6
25.9  3.865206e+6
26  3.829559e+6
26.1  3.794011e+6
26.2  3.758860e+6
26.3  3.724099e+6
26.4  3.689723e+6
26.5  3.656618e+6
26.6  3.619750e+6
26.7  3.585518e+6
26.8  3.551663e+6
26.9  3.518179e+6
27  3.485061e+6
27.1  3.452077e+6
27.2  3.419454e+6
27.3  3.388030e+6
27.4  3.354950e+6
27.5  3.320464e+6
27.6  3.288303e+6
27.7  3.256491e+6
27.8  3.225022e+6
27.9  3.193892e+6
28  3.163095e+6
28.1  3.133197e+6
28.2  3.101694e+6
28.3  3.068820e+6
28.4  3.038189e+6
28.5  3.007885e+6
28.6  2.977904e+6
28.7  2.948242e+6
28.8  2.918894e+6
28.9  2.890543e+6
29  2.860632e+6
29.1  2.829250e+6
29.2  2.800037e+6
29.3  2.771133e+6
29.4  2.742535e+6
29.5  2.714237e+6
29.6  2.686236e+6
29.7  2.659140e+6
29.8  2.630530e+6
29.9  2.600600e+6
30  2.572772e+6
30.1  2.545161e+6
30.2  2.517837e+6
30.3  2.490799e+6
30.4  2.464041e+6
30.5  2.438122e+6
30.6  2.410726e+6
30.7  2.382033e+6
30.8  2.355384e+6
30.9  2.329011e+6
31  2.302909e+6
31.1  2.276986e+6
31.2  2.251329e+6
31.3  2.226444e+6
31.4  2.200117e+6
31.5  2.172508e+6
31.6  2.146898e+6
31.7  2.121552e+6
31.8  2.096464e+6
31.9  2.071633e+6
32  2.047054e+6
32.1  2.023120e+6
32.2  1.996053e+6
32.3  1.971139e+6
32.4  1.946480e+6
32.5  1.922071e+6
32.6  1.897909e+6
32.7  1.873992e+6
32.8  1.851971e+6
32.9  1.827166e+6
33  1.802611e+6
33.1  1.776755e+6
33.2  1.752847e+6
33.3  1.729180e+6
33.4  1.705752e+6
33.5  1.682558e+6
33.6  1.659596e+6
33.7  1.637104e+6
33.8  1.611511e+6
33.9  1.588041e+6
34  1.564806e+6
34.1  1.541767e+6
34.2  1.518958e+6
34.3  1.496376e+6
34.4  1.474020e+6
34.5  1.451986e+6
34.6  1.428556e+6
34.7  1.403817e+6
34.8  1.381030e+6
34.9  1.358469e+6
35  1.336132e+6
35.1  1.313990e+6
35.2  1.292069e+6
35.3  1.270339e+6
35.4  1.247202e+6
35.5  1.222726e+6
35.6  1.200228e+6
35.7  1.177953e+6
35.8  1.155898e+6
35.9  1.134062e+6
36  1.112441e+6
36.1  1.090847e+6
36.2  1.067821e+6
36.3  1.043412e+6
36.4  1.021024e+6
36.5  998857.2
36.6  976908.4
36.7  955175.3
36.8  933655.3
36.9  911990.9
37  888858.3
37.1  864151
37.2  841667.3
37.3  819404.9
37.4  797361.4
37.5  775534
37.6  753920.3
37.7  730528.2
37.8  705503.3
37.9  678976.9
38  654642.2
38.1  630543.4
38.2  606681.5
38.3  583053.7
38.4  559657.3
38.5  537148.5
38.6  513051
38.7  485546.8
38.8  462336.7
38.9  439354.2
39  416596.9
39.1  394060.8
39.2  371745
39.3  326946.1
39.4  278835.9
39.5  231202.5
39.6  184040.4
39.7  137344.2
39.8  91108.91
39.9  45329.19
40  0
