**** COMMENT ****

**** INPUTS ****
kVp [kV] hvMIN [keV] Dhv [keV]
50  5  0.1
Angle [deg.]
30
t_AIR t_BE t_AL t_CU t_SN t_W t_Ta t_Wa [mm]
200  0  0.000015  0  0  0  0  0
Nf P
0.68  0.33
****CALCULATED OUTPUTS ****
Brem[uGy/mAs@1m] Char[uGy/mAs@1m]
2094.236  0
HVL1[cm AL] HVL2[cm AL] HVL1[cmCu] HVL2[cmCu] MeanE[keV] EffEAl[keV] EffECu[keV]
0.0050311  0.0093336  0.0006733  0.0008324  16.91609  7.969464  6.027344
**** CALCULATED SPECTRUM ****
Energy[keV]  N[keV cm^2 mAs]^-1 @ 1 meter
5  1.102407e+7
5.1  1.151343e+7
5.2  1.201647e+7
5.3  1.255536e+7
5.4  1.313297e+7
5.5  1.375245e+7
5.6  1.440472e+7
5.7  1.511947e+7
5.8  1.588773e+7
5.9  1.671423e+7
6  1.760414e+7
6.1  1.793469e+7
6.2  1.825547e+7
6.3  1.859323e+7
6.4  1.894856e+7
6.5  1.932213e+7
6.6  1.969952e+7
6.7  2.011306e+7
6.8  2.054716e+7
6.9  2.100272e+7
7  2.148066e+7
7.1  2.160902e+7
7.2  2.171842e+7
7.3  2.183638e+7
7.4  2.196288e+7
7.5  2.209793e+7
7.6  2.222634e+7
7.7  2.238014e+7
7.8  2.254263e+7
7.9  2.271387e+7
8  2.289394e+7
8.1  2.288637e+7
8.2  2.285909e+7
8.3  2.283767e+7
8.4  2.282201e+7
8.5  2.281197e+7
8.6  2.279331e+7
8.7  2.279576e+7
8.8  2.280355e+7
8.9  2.281659e+7
9  2.283480e+7
9.1  2.273554e+7
9.2  2.261831e+7
9.3  2.250591e+7
9.4  2.239820e+7
9.5  2.229503e+7
9.6  2.218362e+7
9.7  2.209059e+7
9.8  2.200171e+7
9.9  2.191688e+7
10  2.183597e+7
10.1  2.113112e+7
10.2  2.043943e+7
10.3  1.977902e+7
10.4  1.914818e+7
10.5  1.854528e+7
10.6  1.795987e+7
10.7  1.740974e+7
10.8  1.688321e+7
10.9  1.637905e+7
11  1.589608e+7
11.1  1.566447e+7
11.2  1.542659e+7
11.3  1.519435e+7
11.4  1.496758e+7
11.5  1.474610e+7
11.6  1.452335e+7
11.7  1.431277e+7
11.8  1.410696e+7
11.9  1.390580e+7
12  1.370913e+7
12.1  1.359748e+7
12.2  1.347890e+7
12.3  1.336269e+7
12.4  1.324880e+7
12.5  1.313716e+7
12.6  1.302238e+7
12.7  1.291568e+7
12.8  1.281105e+7
12.9  1.270843e+7
13  1.260776e+7
13.1  1.256438e+7
13.2  1.251449e+7
13.3  1.246611e+7
13.4  1.241921e+7
13.5  1.236837e+7
13.6  1.232489e+7
13.7  1.228279e+7
13.8  1.224207e+7
13.9  1.220269e+7
14  1.217212e+7
14.1  1.210991e+7
14.2  1.204906e+7
14.3  1.198954e+7
14.4  1.193132e+7
14.5  1.186932e+7
14.6  1.181413e+7
14.7  1.176015e+7
14.8  1.170736e+7
14.9  1.165573e+7
15  1.161214e+7
15.1  1.154840e+7
15.2  1.148586e+7
15.3  1.142448e+7
15.4  1.136424e+7
15.5  1.130044e+7
15.6  1.124290e+7
15.7  1.118643e+7
15.8  1.113101e+7
15.9  1.107662e+7
16  1.102323e+7
16.1  1.096207e+7
16.2  1.089565e+7
16.3  1.083029e+7
16.4  1.076599e+7
16.5  1.070271e+7
16.6  1.063653e+7
16.7  1.057569e+7
16.8  1.051581e+7
16.9  1.045687e+7
17  1.039886e+7
17.1  1.033701e+7
17.2  1.027031e+7
17.3  1.020459e+7
17.4  1.013983e+7
17.5  1.007601e+7
17.6  1.000950e+7
17.7  9.947918e+6
17.8  9.887222e+6
17.9  9.827392e+6
18  9.768410e+6
18.1  9.708030e+6
18.2  9.643197e+6
18.3  9.579253e+6
18.4  9.516182e+6
18.5  9.453966e+6
18.6  9.389231e+6
18.7  9.329065e+6
18.8  9.269704e+6
18.9  9.211132e+6
19  9.153335e+6
19.1  9.095251e+6
19.2  9.033052e+6
19.3  8.971661e+6
19.4  8.911064e+6
19.5  8.851245e+6
19.6  8.789090e+6
19.7  8.731143e+6
19.8  8.673930e+6
19.9  8.617437e+6
20  8.561652e+6
20.1  8.506378e+6
20.2  8.447325e+6
20.3  8.389006e+6
20.4  8.331406e+6
20.5  8.274513e+6
20.6  8.215446e+6
20.7  8.160262e+6
20.8  8.105746e+6
20.9  8.051886e+6
21  7.998671e+6
21.1  7.946449e+6
21.2  7.890743e+6
21.3  7.835702e+6
21.4  7.781314e+6
21.5  7.727568e+6
21.6  7.671787e+6
21.7  7.619601e+6
21.8  7.568022e+6
21.9  7.517041e+6
22  7.466647e+6
22.1  7.417315e+6
22.2  7.364760e+6
22.3  7.312811e+6
22.4  7.261458e+6
22.5  7.210691e+6
22.6  7.158017e+6
22.7  7.108681e+6
22.8  7.059900e+6
22.9  7.011666e+6
23  6.963970e+6
23.1  6.917676e+6
23.2  6.868388e+6
23.3  6.819650e+6
23.4  6.771454e+6
23.5  6.723791e+6
23.6  6.674328e+6
23.7  6.627976e+6
23.8  6.582129e+6
23.9  6.536781e+6
24  6.491923e+6
24.1  6.448498e+6
24.2  6.402275e+6
24.3  6.356555e+6
24.4  6.311329e+6
24.5  6.266589e+6
24.6  6.220157e+6
24.7  6.176619e+6
24.8  6.133544e+6
24.9  6.090925e+6
25  6.048755e+6
25.1  6.008222e+6
25.2  5.965080e+6
25.3  5.922393e+6
25.4  5.880155e+6
25.5  5.838359e+6
25.6  5.794956e+6
25.7  5.754261e+6
25.8  5.713987e+6
25.9  5.674128e+6
26  5.634677e+6
26.1  5.596717e+6
26.2  5.556308e+6
26.3  5.516316e+6
26.4  5.476734e+6
26.5  5.437556e+6
26.6  5.396852e+6
26.7  5.358688e+6
26.8  5.320911e+6
26.9  5.283513e+6
27  5.246490e+6
27.1  5.210943e+6
27.2  5.173091e+6
27.3  5.135620e+6
27.4  5.098526e+6
27.5  5.059774e+6
27.6  5.023627e+6
27.7  4.987838e+6
27.8  4.952403e+6
27.9  4.917317e+6
28  4.885099e+6
28.1  4.849357e+6
28.2  4.813967e+6
28.3  4.778927e+6
28.4  4.744229e+6
28.5  4.709871e+6
28.6  4.674124e+6
28.7  4.640628e+6
28.8  4.607457e+6
28.9  4.574605e+6
29  4.542069e+6
29.1  4.510897e+6
29.2  4.477667e+6
29.3  4.444759e+6
29.4  4.412166e+6
29.5  4.379886e+6
29.6  4.346282e+6
29.7  4.314802e+6
29.8  4.283621e+6
29.9  4.252734e+6
30  4.222138e+6
30.1  4.192975e+6
30.2  4.161866e+6
30.3  4.131050e+6
30.4  4.100525e+6
30.5  4.070287e+6
30.6  4.038767e+6
30.7  4.009270e+6
30.8  3.980048e+6
30.9  3.951096e+6
31  3.922412e+6
31.1  3.894877e+6
31.2  3.865480e+6
31.3  3.836357e+6
31.4  3.807505e+6
31.5  3.778919e+6
31.6  3.749104e+6
31.7  3.721213e+6
31.8  3.693578e+6
31.9  3.666195e+6
32  3.639062e+6
32.1  3.613228e+6
32.2  3.585620e+6
32.3  3.558264e+6
32.4  3.531157e+6
32.5  3.504297e+6
32.6  3.476247e+6
32.7  3.450034e+6
32.8  3.424056e+6
32.9  3.398311e+6
33  3.372796e+6
33.1  3.348477e+6
33.2  3.322459e+6
33.3  3.296675e+6
33.4  3.271121e+6
33.5  3.245794e+6
33.6  3.219319e+6
33.7  3.194597e+6
33.8  3.170095e+6
33.9  3.145808e+6
34  3.121735e+6
34.1  3.098731e+6
34.2  3.074098e+6
34.3  3.049683e+6
34.4  3.025483e+6
34.5  3.001496e+6
34.6  2.976391e+6
34.7  2.952975e+6
34.8  2.929764e+6
34.9  2.906754e+6
35  2.883945e+6
35.1  2.862100e+6
35.2  2.838684e+6
35.3  2.815473e+6
35.4  2.792465e+6
35.5  2.769657e+6
35.6  2.745760e+6
35.7  2.723493e+6
35.8  2.701418e+6
35.9  2.679534e+6
36  2.657837e+6
36.1  2.637171e+6
36.2  2.614985e+6
36.3  2.592990e+6
36.4  2.571184e+6
36.5  2.549564e+6
36.6  2.526878e+6
36.7  2.505769e+6
36.8  2.484839e+6
36.9  2.464087e+6
37  2.443510e+6
37.1  2.423832e+6
37.2  2.402680e+6
37.3  2.381708e+6
37.4  2.360914e+6
37.5  2.340296e+6
37.6  2.318633e+6
37.7  2.298501e+6
37.8  2.278538e+6
37.9  2.258742e+6
38  2.239112e+6
38.1  2.220341e+6
38.2  2.200137e+6
38.3  2.180103e+6
38.4  2.160237e+6
38.5  2.140537e+6
38.6  2.119811e+6
38.7  2.100575e+6
38.8  2.081499e+6
38.9  2.062582e+6
39  2.043821e+6
39.1  2.025866e+6
39.2  2.006513e+6
39.3  1.987322e+6
39.4  1.968291e+6
39.5  1.949417e+6
39.6  1.929531e+6
39.7  1.911102e+6
39.8  1.892825e+6
39.9  1.874698e+6
40  1.856721e+6
40.1  1.839498e+6
40.2  1.820907e+6
40.3  1.802469e+6
40.4  1.784182e+6
40.5  1.766046e+6
40.6  1.746900e+6
40.7  1.729191e+6
40.8  1.711627e+6
40.9  1.694205e+6
41  1.676925e+6
41.1  1.660277e+6
41.2  1.642277e+6
41.3  1.624424e+6
41.4  1.606716e+6
41.5  1.589153e+6
41.6  1.570582e+6
41.7  1.553434e+6
41.8  1.536425e+6
41.9  1.519553e+6
42  1.502817e+6
42.1  1.486677e+6
42.2  1.469198e+6
42.3  1.451860e+6
42.4  1.434663e+6
42.5  1.417605e+6
42.6  1.399532e+6
42.7  1.382879e+6
42.8  1.366360e+6
42.9  1.349974e+6
43  1.333719e+6
43.1  1.317957e+6
43.2  1.300856e+6
43.3  1.283893e+6
43.4  1.267067e+6
43.5  1.250376e+6
43.6  1.232656e+6
43.7  1.216364e+6
43.8  1.200201e+6
43.9  1.184168e+6
44  1.168262e+6
44.1  1.152754e+6
44.2  1.135899e+6
44.3  1.119179e+6
44.4  1.102592e+6
44.5  1.086138e+6
44.6  1.068632e+6
44.7  1.052574e+6
44.8  1.036644e+6
44.9  1.020840e+6
45  1.005161e+6
45.1  989770.5
45.2  973012.2
45.3  956387.5
45.4  939895.1
45.5  923533.7
45.6  906087.3
45.7  890122.7
45.8  874284.5
45.9  858571.6
46  842982.8
46.1  827570.7
46.2  810758.8
46.3  794080.3
46.4  777533.9
46.5  761118.4
46.6  743480.5
46.7  727477
46.8  711599.8
46.9  695847.7
47  680219.4
47.1  663617
47.2  645460.9
47.3  627448.7
47.4  609579
47.5  591850.5
47.6  572943.5
47.7  555643.8
47.8  538480.4
47.9  521452.3
48  504558
48.1  488611.1
48.2  471154.7
48.3  453835.8
48.4  436653.1
48.5  419605.5
48.6  399944.5
48.7  383476
48.8  367137
48.9  350926.3
49  334842.6
49.1  303208.2
49.2  268435.8
49.3  233939.9
49.4  199717.8
49.5  165767.1
49.6  132085.4
49.7  98670.19
49.8  65519.13
49.9  32629.85
50  0
